Date,Open,High,Low,Close,Adj Close,Volume
1993-04-19,4.750000,4.937500,4.750000,4.875000,2.878351,64400
1993-04-26,4.812500,4.875000,4.500000,4.500000,2.656939,100400
1993-05-03,4.468750,4.468750,4.156250,4.281250,2.527782,86800
1993-05-10,4.312500,4.687500,4.000000,4.625000,2.730743,233200
1993-05-17,4.593750,4.593750,4.343750,4.531250,2.675390,136000
1993-05-24,4.468750,4.500000,4.218750,4.312500,2.546233,275600
1993-05-31,4.343750,4.500000,4.343750,4.468750,2.638489,68000
1993-06-07,4.437500,4.531250,4.406250,4.437500,2.620037,164000
1993-06-14,4.437500,4.562500,4.437500,4.500000,2.656939,259200
1993-06-21,4.562500,4.625000,4.531250,4.531250,2.675390,690800
1993-06-28,4.531250,4.687500,4.531250,4.687500,2.767645,130400
1993-07-05,4.656250,4.750000,4.656250,4.656250,2.749194,155600
1993-07-12,4.687500,4.687500,4.468750,4.562500,2.693841,716800
1993-07-19,4.593750,4.625000,4.500000,4.625000,2.730743,377200
1993-07-26,4.656250,4.718750,4.562500,4.656250,2.749194,60400
1993-08-02,4.687500,4.687500,4.593750,4.625000,2.730743,67200
1993-08-09,4.656250,4.750000,4.593750,4.750000,2.834785,54400
1993-08-16,4.781250,4.781250,4.656250,4.718750,2.816135,84800
1993-08-23,4.750000,4.781250,4.625000,4.750000,2.834785,82800
1993-08-30,4.750000,4.781250,4.625000,4.750000,2.834785,162400
1993-09-06,4.750000,4.843750,4.750000,4.781250,2.853434,148000
1993-09-13,4.718750,4.812500,4.687500,4.687500,2.797484,344400
1993-09-20,4.687500,4.906250,4.562500,4.875000,2.909385,344800
1993-09-27,4.875000,5.312500,4.875000,5.250000,3.133184,583200
1993-10-04,5.218750,5.406250,5.218750,5.375000,3.207783,346400
1993-10-11,5.343750,5.500000,5.312500,5.406250,3.226432,138800
1993-10-18,5.437500,5.437500,5.312500,5.343750,3.189133,171200
1993-10-25,5.281250,5.500000,5.250000,5.281250,3.151834,202000
1993-11-01,5.281250,5.375000,4.937500,5.000000,2.983982,162000
1993-11-08,5.000000,5.343750,5.000000,5.312500,3.200968,339200
1993-11-15,5.343750,5.437500,5.281250,5.375000,3.238626,183200
1993-11-22,5.312500,5.312500,5.156250,5.312500,3.200968,117200
1993-11-29,5.375000,5.406250,5.250000,5.250000,3.163311,45600
1993-12-06,5.281250,5.281250,5.218750,5.281250,3.182138,182800
1993-12-13,5.281250,5.281250,5.031250,5.031250,3.031505,559600
1993-12-20,5.031250,5.218750,5.031250,5.187500,3.125652,211600
1993-12-27,5.156250,5.187500,5.093750,5.187500,3.125652,23600
1994-01-03,5.125000,5.187500,5.093750,5.093750,3.069162,53200
1994-01-10,5.093750,5.125000,5.031250,5.093750,3.069162,82000
1994-01-17,5.093750,5.250000,5.031250,5.062500,3.050334,180000
1994-01-24,5.125000,5.187500,5.062500,5.062500,3.050334,92400
1994-01-31,5.093750,5.281250,5.062500,5.250000,3.163311,104800
1994-02-07,5.250000,5.437500,5.250000,5.406250,3.288777,53200
1994-02-14,5.406250,5.500000,5.343750,5.406250,3.288777,159600
1994-02-21,5.437500,5.437500,5.312500,5.343750,3.250758,14800
1994-02-28,5.312500,5.593750,5.312500,5.562500,3.383828,169600
1994-03-07,5.562500,5.687500,5.562500,5.593750,3.402838,86000
1994-03-14,5.593750,5.687500,5.562500,5.687500,3.459870,538000
1994-03-21,5.625000,5.656250,5.625000,5.625000,3.421850,324800
1994-03-28,5.625000,5.656250,5.312500,5.343750,3.250758,290400
1994-04-04,5.312500,5.656250,5.312500,5.625000,3.421850,614800
1994-04-11,5.593750,5.625000,5.437500,5.468750,3.326799,86000
1994-04-18,5.468750,5.500000,5.406250,5.406250,3.288777,98800
1994-04-25,5.468750,5.687500,5.468750,5.593750,3.402838,72000
1994-05-02,5.531250,5.718750,5.500000,5.687500,3.459870,428400
1994-05-09,5.625000,6.125000,5.593750,5.687500,3.497596,144000
1994-05-16,5.718750,5.906250,5.718750,5.843750,3.593684,52400
1994-05-23,5.875000,6.125000,5.812500,6.093750,3.747426,428800
1994-05-30,6.093750,6.406250,6.031250,6.406250,3.939603,306000
1994-06-06,6.406250,6.406250,6.093750,6.156250,3.785861,126400
1994-06-13,6.125000,6.218750,6.031250,6.156250,3.785861,118800
1994-06-20,6.156250,6.156250,5.812500,5.812500,3.574466,110800
1994-06-27,5.812500,5.812500,5.656250,5.718750,3.516813,127200
1994-07-04,5.718750,5.968750,5.718750,5.875000,3.612902,73600
1994-07-11,5.906250,5.937500,5.812500,5.843750,3.593684,90000
1994-07-18,5.843750,6.187500,5.843750,6.093750,3.747426,81200
1994-07-25,6.093750,6.187500,6.093750,6.093750,3.747426,88800
1994-08-01,6.093750,6.125000,6.000000,6.000000,3.689774,82000
1994-08-08,6.031250,6.031250,5.906250,5.906250,3.668237,57600
1994-08-15,5.875000,5.875000,5.593750,5.593750,3.474153,119600
1994-08-22,5.625000,5.625000,5.531250,5.625000,3.493562,23200
1994-08-29,5.562500,5.937500,5.562500,5.937500,3.687645,338400
1994-09-05,6.093750,6.093750,6.000000,6.062500,3.765282,71200
1994-09-12,6.031250,6.312500,5.750000,6.312500,3.920551,319600
1994-09-19,6.375000,6.406250,6.250000,6.250000,3.881734,187600
1994-09-26,6.250000,6.781250,6.218750,6.750000,4.192271,3610000
1994-10-03,6.750000,6.812500,6.656250,6.781250,4.211680,1444800
1994-10-10,6.781250,6.937500,6.781250,6.843750,4.250498,558000
1994-10-17,6.843750,6.843750,6.750000,6.750000,4.192271,496800
1994-10-24,6.781250,6.875000,6.750000,6.875000,4.269906,410400
1994-10-31,6.843750,6.968750,6.781250,6.906250,4.289315,925200
1994-11-07,6.937500,7.125000,6.843750,6.906250,4.327078,556000
1994-11-14,6.875000,7.125000,6.843750,6.906250,4.327078,745600
1994-11-21,6.937500,6.937500,6.687500,6.750000,4.229181,384800
1994-11-28,6.718750,6.718750,6.312500,6.406250,4.013805,540800
1994-12-05,6.562500,6.625000,6.218750,6.281250,3.935485,550400
1994-12-12,6.281250,6.687500,6.218750,6.656250,4.170443,340000
1994-12-19,6.656250,7.250000,6.625000,7.218750,4.522874,436800
1994-12-26,7.187500,7.218750,7.093750,7.187500,4.503296,240000
1995-01-02,7.125000,7.156250,6.750000,6.812500,4.268340,227200
1995-01-09,6.781250,6.781250,6.343750,6.468750,4.052963,401200
1995-01-16,6.468750,6.687500,6.468750,6.593750,4.131284,500000
1995-01-23,6.625000,6.718750,6.531250,6.687500,4.190022,111200
1995-01-30,6.656250,6.687500,6.156250,6.437500,4.033387,734800
1995-02-06,6.500000,6.812500,6.500000,6.656250,4.210066,273600
1995-02-13,6.625000,6.937500,6.625000,6.906250,4.368190,338800
1995-02-20,6.906250,7.156250,6.812500,7.125000,4.506548,412800
1995-02-27,7.156250,7.281250,6.906250,6.937500,4.387956,496400
1995-03-06,6.906250,6.906250,6.593750,6.843750,4.328660,366800
1995-03-13,6.843750,7.000000,6.812500,6.968750,4.407722,181200
1995-03-20,6.968750,7.343750,6.968750,7.250000,4.585614,530400
1995-03-27,7.250000,7.312500,7.156250,7.156250,4.526315,269200
1995-04-03,7.125000,7.125000,6.968750,6.968750,4.407722,150000
1995-04-10,7.000000,7.406250,6.968750,7.375000,4.664675,320800
1995-04-17,7.343750,7.531250,7.250000,7.406250,4.684441,820800
1995-04-24,7.406250,7.562500,7.187500,7.375000,4.664675,420800
1995-05-01,7.375000,7.687500,7.375000,7.687500,4.862332,503600
1995-05-08,7.625000,7.656250,7.437500,7.593750,4.841768,516800
1995-05-15,7.593750,7.593750,7.500000,7.562500,4.821844,166000
1995-05-22,7.562500,8.000000,7.562500,7.687500,4.901545,346000
1995-05-29,7.687500,7.718750,7.625000,7.687500,4.901545,224000
1995-06-05,7.656250,7.968750,7.656250,7.937500,5.060942,592000
1995-06-12,7.968750,8.000000,7.843750,7.906250,5.041018,318000
1995-06-19,7.906250,7.937500,7.687500,7.843750,5.001167,437200
1995-06-26,7.843750,8.031250,7.781250,8.031250,5.120716,285200
1995-07-03,8.031250,8.125000,7.953125,7.968750,5.080868,263600
1995-07-10,7.937500,8.000000,7.781250,7.812500,4.981242,166800
1995-07-17,7.875000,7.937500,7.750000,7.812500,4.981242,161200
1995-07-24,7.843750,8.062500,7.812500,7.968750,5.080868,712800
1995-07-31,8.031250,8.312500,8.031250,8.156250,5.200417,428400
1995-08-07,8.156250,8.281250,8.125000,8.187500,5.265533,462400
1995-08-14,8.187500,8.343750,8.031250,8.125000,5.225338,616800
1995-08-21,8.125000,8.250000,8.093750,8.093750,5.205241,562000
1995-08-28,8.125000,8.187500,7.843750,7.968750,5.124850,357200
1995-09-04,7.906250,8.343750,7.906250,8.343750,5.366022,415600
1995-09-11,8.343750,8.468750,8.250000,8.468750,5.446411,233200
1995-09-18,8.437500,8.562500,8.343750,8.406250,5.406215,275200
1995-09-25,8.437500,8.468750,8.281250,8.281250,5.325826,190000
1995-10-02,8.250000,8.250000,7.906250,7.906250,5.084656,275200
1995-10-09,7.906250,8.250000,7.781250,8.250000,5.305729,475200
1995-10-16,8.250000,8.531250,8.250000,8.343750,5.366022,217600
1995-10-23,8.375000,8.562500,8.062500,8.500000,5.466508,642800
1995-10-30,8.500000,8.843750,8.500000,8.843750,5.687581,1029200
1995-11-06,8.843750,8.875000,8.718750,8.718750,5.652410,486000
1995-11-13,8.750000,8.812500,8.687500,8.781250,5.692927,1365200
1995-11-20,8.812500,8.812500,8.593750,8.750000,5.672669,357600
1995-11-27,8.718750,9.125000,8.718750,9.125000,5.915785,345200
1995-12-04,9.156250,9.562500,9.156250,9.406250,6.098116,636800
1995-12-11,9.406250,9.468750,9.031250,9.062500,5.875262,491200
1995-12-18,9.062500,9.062500,8.781250,9.000000,5.834745,499600
1995-12-25,9.000000,9.343750,9.000000,9.343750,6.057601,524000
1996-01-01,9.281250,9.312500,9.093750,9.218750,5.976562,377200
1996-01-08,9.187500,9.187500,8.812500,8.875000,5.753708,305200
1996-01-15,8.812500,8.906250,8.687500,8.750000,5.672669,364800
1996-01-22,8.750000,9.250000,8.750000,9.250000,5.996820,578400
1996-01-29,9.218750,9.406250,9.187500,9.375000,6.077859,722400
1996-02-05,9.343750,9.406250,9.281250,9.343750,6.057601,270800
1996-02-12,9.375000,9.406250,9.218750,9.281250,6.062347,432000
1996-02-19,9.218750,9.468750,9.187500,9.406250,6.143993,470800
1996-02-26,9.343750,9.468750,9.062500,9.312500,6.082758,1140000
1996-03-04,9.343750,9.437500,9.187500,9.281250,6.062347,806400
1996-03-11,9.281250,9.718750,9.281250,9.500000,6.205229,764400
1996-03-18,9.531250,9.531250,9.312500,9.406250,6.143993,776000
1996-03-25,9.406250,10.468750,9.406250,10.375000,6.776765,958000
1996-04-01,10.375000,10.781250,10.375000,10.656250,6.960471,1418000
1996-04-08,10.593750,10.750000,10.125000,10.250000,6.695116,1722800
1996-04-15,10.281250,10.343750,9.812500,9.937500,6.490997,1111600
1996-04-22,9.937500,9.937500,9.375000,9.375000,6.123580,443200
1996-04-29,9.343750,9.656250,9.156250,9.593750,6.266464,1989600
1996-05-06,9.593750,9.656250,9.500000,9.562500,6.246052,1368400
1996-05-13,9.562500,9.625000,9.343750,9.406250,6.189152,479200
1996-05-20,9.375000,9.968750,9.375000,9.968750,6.559267,1003200
1996-05-27,9.968750,10.593750,9.968750,10.593750,6.970509,781200
1996-06-03,10.562500,10.593750,10.406250,10.406250,6.847134,486000
1996-06-10,10.375000,10.375000,9.843750,9.937500,6.538707,489600
1996-06-17,9.031250,9.156250,7.875000,7.968750,5.243303,3796400
1996-06-24,8.000000,8.000000,7.250000,7.562500,4.975996,1210400
1996-07-01,7.593750,8.812500,7.593750,8.500000,5.592854,1512800
1996-07-08,8.500000,8.500000,8.125000,8.312500,5.469483,535200
1996-07-15,8.250000,8.312500,7.875000,8.218750,5.407797,659200
1996-07-22,8.218750,8.218750,7.937500,7.968750,5.243303,553600
1996-07-29,7.937500,8.687500,7.937500,8.593750,5.654543,504800
1996-08-05,8.562500,9.156250,8.500000,9.000000,5.971020,1360800
1996-08-12,9.000000,9.125000,8.937500,9.125000,6.053952,169600
1996-08-19,9.156250,9.281250,8.718750,8.718750,5.784424,233600
1996-08-26,8.750000,8.812500,8.625000,8.750000,5.805160,85200
1996-09-02,8.750000,8.750000,8.593750,8.718750,5.784424,206400
1996-09-09,8.750000,8.812500,8.187500,8.406250,5.577098,889200
1996-09-16,8.406250,8.500000,8.062500,8.093750,5.369772,481200
1996-09-23,8.125000,8.187500,7.906250,8.062500,5.349040,862800
1996-09-30,8.062500,8.406250,8.031250,8.156250,5.411236,592400
1996-10-07,8.156250,8.187500,7.812500,8.031250,5.328304,694400
1996-10-14,8.000000,8.156250,7.875000,7.937500,5.266108,408400
1996-10-21,7.937500,8.031250,7.625000,7.968750,5.286841,491600
1996-10-28,7.937500,8.187500,7.843750,8.156250,5.411236,435200
1996-11-04,8.156250,8.687500,8.156250,8.562500,5.730515,589600
1996-11-11,8.531250,8.812500,8.531250,8.718750,5.835087,523600
1996-11-18,8.687500,9.031250,8.625000,8.625000,5.772346,728400
1996-11-25,8.562500,8.875000,8.562500,8.625000,5.772346,763200
1996-12-02,8.656250,8.906250,8.562500,8.656250,5.793259,496400
1996-12-09,8.656250,8.750000,8.218750,8.250000,5.521374,527200
1996-12-16,8.250000,8.343750,8.187500,8.281250,5.542286,1206800
1996-12-23,8.281250,8.500000,8.250000,8.500000,5.688685,300000
1996-12-30,8.406250,8.843750,8.406250,8.687500,5.814173,666000
1997-01-06,8.750000,9.000000,8.750000,8.906250,5.960575,577200
1997-01-13,8.875000,8.906250,8.625000,8.750000,5.856003,779200
1997-01-20,8.687500,8.718750,8.406250,8.500000,5.688685,805200
1997-01-27,8.468750,8.468750,8.187500,8.375000,5.605031,900000
1997-02-03,8.750000,8.968750,8.687500,8.781250,5.876915,765200
1997-02-10,8.750000,9.156250,8.750000,8.937500,6.031903,788800
1997-02-17,8.843750,9.718750,8.718750,9.593750,6.474805,1179200
1997-02-24,9.562500,9.937500,9.531250,9.937500,6.706803,741600
1997-03-03,9.906250,10.156250,9.906250,10.000000,6.748983,729200
1997-03-10,10.000000,10.031250,9.468750,9.562500,6.453713,435600
1997-03-17,9.593750,10.031250,9.375000,10.000000,6.748983,464800
1997-03-24,9.968750,9.968750,9.656250,9.656250,6.516988,695600
1997-03-31,9.656250,9.656250,9.312500,9.500000,6.411534,540400
1997-04-07,9.531250,9.562500,9.343750,9.375000,6.327174,367600
1997-04-14,9.406250,9.406250,8.781250,9.375000,6.327174,1259200
1997-04-21,9.375000,10.093750,9.375000,9.906250,6.685711,1352400
1997-04-28,9.968750,10.187500,9.812500,10.062500,6.791165,1034400
1997-05-05,10.062500,10.406250,9.937500,10.250000,6.917705,538000
1997-05-12,10.250000,10.531250,10.187500,10.250000,6.966165,436400
1997-05-19,10.250000,10.843750,10.250000,10.843750,7.369693,525600
1997-05-26,10.843750,11.093750,10.843750,11.093750,7.539601,295600
1997-06-02,11.125000,11.406250,11.125000,11.375000,7.730748,873600
1997-06-09,11.312500,11.437500,10.687500,11.000000,7.475884,387600
1997-06-16,11.000000,11.031250,10.843750,10.937500,7.433413,556000
1997-06-23,10.968750,11.093750,10.718750,11.093750,7.539601,469200
1997-06-30,11.078125,11.468750,11.078125,11.359375,7.720124,419600
1997-07-07,11.359375,11.484375,11.125000,11.453125,7.783840,438400
1997-07-14,11.453125,11.718750,11.218750,11.437500,7.773225,449600
1997-07-21,11.406250,12.078125,11.250000,12.000000,8.155519,1130400
1997-07-28,12.062500,13.015625,12.000000,12.937500,8.792662,862000
1997-08-04,12.937500,13.906250,12.937500,13.562500,9.275772,1016000
1997-08-11,13.593750,13.937500,13.562500,13.625000,9.318517,706400
1997-08-18,13.578125,13.609375,13.125000,13.406250,9.168910,631200
1997-08-25,13.406250,14.062500,13.406250,14.062500,9.617734,477600
1997-09-01,14.062500,14.781250,13.937500,13.953125,9.542931,745600
1997-09-08,13.953125,14.015625,13.531250,14.000000,9.574989,976400
1997-09-15,13.968750,14.250000,13.812500,14.125000,9.660480,508400
1997-09-22,14.062500,14.281250,13.812500,13.984375,9.564304,485200
1997-09-29,14.046875,14.250000,13.828125,14.000000,9.574989,485600
1997-10-06,14.031250,14.281250,13.968750,14.187500,9.703226,410800
1997-10-13,14.250000,14.500000,13.500000,13.531250,9.254400,501600
1997-10-20,13.375000,14.234375,13.375000,14.234375,9.735285,796000
1997-10-27,14.171875,14.218750,13.390625,13.734375,9.393321,640400
1997-11-03,13.703125,14.062500,13.453125,13.468750,9.266059,645200
1997-11-10,13.437500,13.562500,12.609375,13.156250,9.051071,419200
1997-11-17,13.250000,14.390625,13.250000,14.109375,9.706788,605600
1997-11-24,14.140625,14.250000,14.078125,14.250000,9.803536,131200
1997-12-01,14.250000,14.781250,14.250000,14.687500,10.104523,643200
1997-12-08,14.687500,14.687500,13.843750,14.093750,9.696036,452800
1997-12-15,14.031250,14.132800,13.375000,13.453125,9.255306,527600
1997-12-22,13.453125,13.500000,13.109375,13.203125,9.083321,533600
1997-12-29,13.203125,13.890625,13.109375,13.781250,9.481050,587200
1998-01-05,13.750000,13.750000,12.281250,12.296875,8.459846,967200
1998-01-12,12.234375,12.468750,12.171875,12.296875,8.459846,1120400
1998-01-19,12.312500,12.562500,11.984375,12.468750,8.578093,808400
1998-01-26,12.500000,13.187500,12.312500,12.750000,8.771585,1226800
1998-02-02,12.781250,13.937500,12.750000,13.703125,9.427301,1265200
1998-02-09,13.640625,14.078125,13.343750,13.734375,9.508464,465200
1998-02-16,13.781250,14.468750,13.781250,14.468750,10.016880,551200
1998-02-23,14.687500,14.687500,14.265625,14.421875,9.984427,714800
1998-03-02,14.421875,15.156250,14.421875,14.828125,10.265676,791600
1998-03-09,14.796875,15.437500,14.765625,15.250000,10.557749,763600
1998-03-16,15.234375,15.781250,15.187500,15.750000,10.903900,387200
1998-03-23,15.718750,15.906250,15.000000,15.015625,10.395483,480000
1998-03-30,15.015625,15.500000,14.953125,15.265625,10.568567,1166400
1998-04-06,15.265625,15.296875,14.750000,14.984375,10.373852,811200
1998-04-13,14.968750,15.156250,14.578125,14.687500,10.168321,707600
1998-04-20,14.750000,15.125000,14.000000,14.578125,10.092597,1037200
1998-04-27,14.562500,15.812500,14.187500,15.500000,10.730824,938000
1998-05-04,15.406250,15.703125,15.406250,15.671875,10.849813,505200
1998-05-11,15.687500,16.375000,15.687500,16.250000,11.308424,979600
1998-05-18,16.250000,16.437500,15.828125,15.828125,11.014837,946000
1998-05-25,15.890625,16.468750,15.875000,16.203125,11.275804,860000
1998-06-01,16.203125,16.453125,15.593750,15.859375,11.036586,360400
1998-06-08,15.890625,15.937500,14.812500,15.125000,10.525535,606400
1998-06-15,15.062500,15.109375,14.625000,14.703125,10.231948,1112400
1998-06-22,14.703125,15.250000,14.671875,15.046875,10.471167,483200
1998-06-29,15.046875,15.968750,15.046875,15.671875,10.906099,526400
1998-07-06,15.687500,16.125000,15.687500,16.078125,11.188811,476400
1998-07-13,16.140625,16.718750,16.140625,16.328125,11.362789,4096800
1998-07-20,16.312500,16.500000,16.312500,16.343750,11.373665,1941600
1998-07-27,16.312500,16.328125,15.000000,15.390625,10.710382,2035600
1998-08-03,15.406250,15.406250,14.703125,14.953125,10.460463,858000
1998-08-10,14.968750,15.031250,14.296875,15.031250,10.515117,620400
1998-08-17,15.031250,15.718750,14.875000,15.015625,10.504185,976400
1998-08-24,15.046875,15.781250,13.750000,13.968750,9.771842,563200
1998-08-31,14.218750,14.718750,13.156250,14.281250,9.990452,735600
1998-09-07,14.343750,14.656250,13.187500,13.406250,9.378347,308600
1998-09-14,13.343750,14.000000,12.812500,13.937500,9.749984,723600
1998-09-21,13.812500,14.031250,11.062500,12.000000,8.394602,2046600
1998-09-28,12.062500,12.187500,10.250000,11.000000,7.695054,2106800
1998-10-05,11.000000,11.250000,9.843750,10.312500,7.214115,1159600
1998-10-12,10.437500,11.750000,10.437500,11.625000,8.132273,1219800
1998-10-19,11.750000,15.000000,11.750000,15.000000,10.493253,840200
1998-10-26,14.875000,14.875000,12.687500,13.375000,9.356486,1033800
1998-11-02,13.500000,14.500000,13.500000,13.937500,9.778822,1203200
1998-11-09,13.968750,14.000000,13.625000,13.718750,9.625341,712000
1998-11-16,13.750000,13.750000,13.375000,13.750000,9.647269,833600
1998-11-23,13.750000,14.562500,13.750000,14.125000,9.910378,518000
1998-11-30,14.093750,14.468750,13.812500,14.437500,10.129633,1015800
1998-12-07,14.406250,15.062500,13.750000,13.937500,9.778822,706200
1998-12-14,14.000000,14.187500,12.500000,14.062500,9.866527,835600
1998-12-21,14.187500,15.062500,13.843750,13.968750,9.800748,629600
1998-12-28,14.000000,14.187500,13.531250,14.031250,9.844600,651800
1999-01-04,13.812500,14.375000,13.031250,13.375000,9.384166,679000
1999-01-11,13.375000,13.437500,12.000000,13.437500,9.428015,963200
1999-01-18,13.312500,13.843750,12.781250,13.625000,9.559565,408400
1999-01-25,13.562500,13.875000,13.500000,13.656250,9.581491,771200
1999-02-01,13.656250,14.468750,13.218750,13.625000,9.559565,617200
1999-02-08,13.500000,13.812500,12.000000,12.031250,8.466161,596800
1999-02-15,12.156250,13.062500,11.562500,12.812500,9.015914,864000
1999-02-22,13.187500,14.437500,13.062500,13.687500,9.631631,597000
1999-03-01,13.812500,14.125000,13.187500,13.625000,9.587650,434600
1999-03-08,13.687500,14.812500,13.375000,14.562500,10.247355,663800
1999-03-15,14.437500,14.625000,13.687500,13.750000,9.675610,610200
1999-03-22,13.750000,13.750000,12.437500,12.906250,9.081881,488600
1999-03-29,12.968750,13.500000,12.500000,12.812500,9.015914,445200
1999-04-05,12.875000,13.125000,11.906250,12.812500,9.015914,1107400
1999-04-12,12.687500,14.687500,12.375000,14.343750,10.093418,641600
1999-04-19,14.250000,15.000000,12.781250,13.500000,9.499690,708800
1999-04-26,13.562500,14.500000,12.812500,14.000000,9.851528,508400
1999-05-03,13.687500,14.375000,12.750000,12.812500,9.015914,606600
1999-05-10,13.031250,14.812500,13.031250,14.750000,10.409033,715600
1999-05-17,14.625000,15.750000,14.437500,14.687500,10.364926,837200
1999-05-24,14.718750,14.718750,13.718750,13.750000,9.703334,900000
1999-05-31,13.812500,14.843750,13.625000,13.718750,9.681279,725200
1999-06-07,13.843750,15.187500,13.687500,14.812500,10.453137,352000
1999-06-14,14.937500,15.250000,14.500000,14.968750,10.563402,581000
1999-06-21,15.000000,15.000000,13.937500,14.093750,9.945919,742200
1999-06-28,14.031250,15.437500,14.031250,15.281250,10.783934,1096400
1999-07-05,15.062500,15.062500,13.500000,14.062500,9.923865,608400
1999-07-12,14.250000,15.000000,14.187500,14.812500,10.453137,444800
1999-07-19,14.781250,15.000000,13.312500,14.687500,10.364926,838400
1999-07-26,14.687500,14.781250,14.000000,14.468750,10.210551,1015200
1999-08-02,14.406250,14.500000,13.625000,14.062500,9.959357,516600
1999-08-09,14.125000,14.312500,13.406250,13.812500,9.782299,600600
1999-08-16,13.843750,14.000000,12.968750,13.093750,9.273267,1139200
1999-08-23,13.156250,13.156250,12.406250,12.562500,8.897023,868800
1999-08-30,12.593750,13.187500,12.500000,13.187500,9.339663,742200
1999-09-06,13.187500,13.562500,13.187500,13.375000,9.472455,349600
1999-09-13,13.375000,13.375000,11.718750,12.625000,8.941289,873200
1999-09-20,12.656250,12.843750,11.250000,11.375000,8.056012,1284400
1999-09-27,11.437500,13.375000,11.437500,12.781250,9.051946,832400
1999-10-04,12.750000,13.000000,11.937500,12.875000,9.118340,612000
1999-10-11,12.875000,13.187500,12.812500,13.062500,9.251136,454200
1999-10-18,13.062500,13.593750,12.031250,12.625000,8.941289,862400
1999-10-25,12.593750,13.437500,12.000000,13.437500,9.516717,1003600
1999-11-01,13.375000,14.312500,13.375000,13.937500,9.909402,739200
1999-11-08,13.968750,13.968750,13.250000,13.500000,9.598347,339200
1999-11-15,13.468750,14.625000,13.375000,13.968750,9.931621,689000
1999-11-22,13.750000,14.062500,13.031250,13.437500,9.553908,707800
1999-11-29,13.500000,14.125000,13.093750,13.843750,9.842748,980400
1999-12-06,13.781250,14.062500,12.625000,13.156250,9.353945,742000
1999-12-13,13.125000,14.125000,12.875000,14.000000,9.953839,1237400
1999-12-20,13.875000,13.906250,12.687500,12.968750,9.220631,547800
1999-12-27,12.968750,13.125000,12.343750,12.562500,8.931794,772000
2000-01-03,12.562500,14.312500,11.687500,13.031250,9.265069,1291800
2000-01-10,12.906250,13.687500,12.750000,13.375000,9.509475,827600
2000-01-17,13.125000,13.421850,12.562500,12.750000,9.065103,415600
2000-01-24,12.687500,13.062500,11.187500,11.187500,7.954185,1220000
2000-01-31,11.250000,13.000000,11.000000,11.562500,8.220810,1325800
2000-02-07,11.406250,12.000000,11.031250,11.125000,7.909747,595800
2000-02-14,11.312500,12.093750,10.750000,11.781250,8.412712,1339800
2000-02-21,11.750000,12.187500,11.375000,11.656250,8.323454,1567800
2000-02-28,11.625000,12.718750,11.062500,12.406250,8.859011,1618400
2000-03-06,12.375000,12.375000,10.062500,11.312500,8.077991,1225600
2000-03-13,11.250000,12.500000,10.906250,12.312500,8.792068,1931400
2000-03-20,12.250000,13.468750,12.062500,12.843750,9.171421,806600
2000-03-27,12.625000,13.812500,12.125000,13.343750,9.528460,787800
2000-04-03,13.437500,13.437500,12.125000,12.750000,9.104478,958600
2000-04-10,12.687500,13.218750,11.937500,12.093750,8.635861,545800
2000-04-17,12.062500,12.937500,11.687500,12.937500,9.238364,452800
2000-04-24,12.937500,14.250000,12.875000,14.250000,10.175591,1012200
2000-05-01,14.000000,14.000000,13.218750,13.625000,9.729294,574800
2000-05-08,13.625000,13.750000,12.875000,13.656250,9.785943,638400
2000-05-15,13.593750,13.750000,13.281250,13.718750,9.830729,600200
2000-05-22,13.718750,13.750000,13.250000,13.437500,9.629188,652400
2000-05-29,13.375000,13.750000,13.250000,13.750000,9.853125,581600
2000-06-05,13.750000,13.750000,13.250000,13.625000,9.763552,400600
2000-06-12,13.531250,14.125000,13.468750,14.093750,10.099454,1014200
2000-06-19,14.125000,14.468750,13.875000,14.062500,10.077060,915000
2000-06-26,13.750000,14.656250,13.500000,13.500000,9.673975,1248600
2000-07-03,13.625000,14.843750,13.625000,14.437500,10.345783,597000
2000-07-10,14.437500,15.000000,14.000000,14.312500,10.256204,626800
2000-07-17,14.187500,14.500000,11.687500,12.156250,8.711056,1372600
2000-07-24,12.156250,12.687500,12.125000,12.156250,8.711056,1793400
2000-07-31,12.156250,12.593750,12.156250,12.406250,8.926454,728200
2000-08-07,12.406250,13.093750,12.343750,12.812500,9.218759,554200
2000-08-14,12.875000,12.937500,11.968750,12.093750,8.701608,650600
2000-08-21,12.156250,12.281250,11.125000,11.656250,8.386818,1164600
2000-08-28,11.937500,11.968750,11.437500,11.781250,8.476760,1092000
2000-09-04,11.906250,12.312500,11.531250,12.156250,8.746572,824400
2000-09-11,12.281250,12.687500,12.062500,12.312500,8.859001,831600
2000-09-18,12.187500,12.187500,10.937500,11.500000,8.274399,1053200
2000-09-25,11.375000,12.093750,11.250000,11.968750,8.611669,902000
2000-10-02,12.093750,12.281250,11.156250,11.156250,8.027061,896600
2000-10-09,11.031250,11.625000,10.718750,11.625000,8.364336,981200
2000-10-16,11.625000,11.625000,9.687500,9.937500,7.150156,1995800
2000-10-23,9.937500,10.218750,9.750000,10.156250,7.307552,1303800
2000-10-30,10.125000,10.468750,9.937500,10.437500,7.509912,1653400
2000-11-06,10.406250,11.562500,10.343750,11.125000,8.044183,3075200
2000-11-13,11.125000,12.500000,11.125000,12.250000,8.857635,1478000
2000-11-20,12.250000,12.531250,11.562500,12.375000,8.948023,498800
2000-11-27,12.437500,12.781250,12.125000,12.562500,9.083599,605400
2000-12-04,12.562500,12.937500,12.500000,12.718750,9.196576,859000
2000-12-11,12.625000,13.781250,12.562500,13.531250,9.784080,986800
2000-12-18,13.531250,14.187500,13.500000,14.187500,10.258594,1079600
2000-12-25,14.187500,15.062500,13.937500,14.687500,10.620124,578200
2001-01-01,14.687500,14.687500,13.625000,13.843750,10.010034,751000
2001-01-08,13.843750,14.781250,13.218750,14.750000,10.665320,1196800
2001-01-15,14.687500,14.812500,14.031250,14.093750,10.190803,819600
2001-01-22,14.125000,14.843750,14.000000,14.281250,10.326379,664800
2001-01-29,14.400000,15.165000,14.225000,14.355000,10.379707,1266200
2001-02-05,14.325000,14.800000,14.110000,14.250000,10.303783,707400
2001-02-12,14.335000,14.780000,14.240000,14.300000,10.376081,740600
2001-02-19,14.305000,15.000000,14.255000,14.690000,10.659060,643000
2001-02-26,14.685000,15.115000,14.225000,14.560000,10.564736,963200
2001-03-05,14.560000,15.675000,14.560000,15.400000,11.174239,836400
2001-03-12,15.325000,15.800000,14.600000,14.600000,10.593760,1728400
2001-03-19,15.075000,15.500000,14.255000,14.790000,10.731622,1573000
2001-03-26,14.665000,15.450000,14.440000,15.235000,11.054510,717800
2001-04-02,15.235000,15.500000,14.625000,15.275000,11.083537,381400
2001-04-09,15.325000,15.700000,15.055000,15.300000,11.101678,392800
2001-04-16,15.200000,16.254999,15.175000,15.950000,11.573318,803200
2001-04-23,15.825000,16.400000,15.515000,15.950000,11.573318,1630000
2001-04-30,15.800000,16.750000,15.500000,16.600000,12.044959,825200
2001-05-07,16.594999,17.940001,16.250000,17.334999,12.617826,1137600
2001-05-14,17.340000,18.605000,17.075001,17.725000,12.901693,1329600
2001-05-21,17.725000,18.495001,16.799999,17.205000,12.523203,796200
2001-05-28,17.200001,17.200001,16.375000,16.629999,12.104671,582600
2001-06-04,16.549999,17.700001,16.450001,17.424999,12.683337,510800
2001-06-11,17.424999,17.575001,16.725000,17.049999,12.410380,603000
2001-06-18,17.250000,18.000000,16.540001,16.700001,12.155623,1150000
2001-06-25,16.760000,16.905001,15.910000,16.215000,11.802600,982800
2001-07-02,16.325001,16.395000,15.625000,15.675000,11.409544,453000
2001-07-09,15.700000,16.094999,15.250000,15.855000,11.540563,860400
2001-07-16,15.730000,16.795000,15.730000,16.465000,11.984571,455400
2001-07-23,16.764999,17.049999,16.125000,16.570000,12.061001,893800
2001-07-30,16.570000,16.775000,16.100000,16.750000,12.235691,491000
2001-08-06,16.655001,16.809999,16.405001,16.725000,12.217428,512600
2001-08-13,16.764999,17.674999,16.625000,17.584999,12.845650,623600
2001-08-20,17.584999,18.125000,17.200001,17.870001,13.053840,804000
2001-08-27,17.920000,18.500000,17.620001,17.895000,13.072101,750600
2001-09-03,17.895000,18.350000,17.100000,17.700001,12.929658,835400
2001-09-10,17.610001,17.629999,17.299999,17.500000,12.783553,86200
2001-09-17,17.375000,17.375000,14.250000,15.030000,10.979248,823200
2001-09-24,15.130000,16.250000,15.100000,15.900000,11.614770,919200
2001-10-01,15.900000,16.500000,15.260000,16.325001,11.925232,763400
2001-10-08,16.375000,17.225000,15.760000,17.010000,12.425614,497200
2001-10-15,16.950001,17.370001,13.550000,14.500000,10.592088,2824600
2001-10-22,14.800000,15.245000,14.665000,14.990000,10.950029,786200
2001-10-29,15.010000,15.635000,14.960000,15.390000,11.242225,551800
2001-11-05,15.390000,16.150000,15.340000,15.490000,11.360747,675800
2001-11-12,15.300000,16.549999,15.225000,16.184999,11.870479,629000
2001-11-19,16.100000,16.500000,15.950000,16.450001,12.064837,1158600
2001-11-26,16.410000,16.575001,15.850000,16.400000,12.028165,953000
2001-12-03,16.400000,17.165001,16.225000,17.000000,12.468221,1160600
2001-12-10,16.924999,17.125000,16.219999,16.250000,11.918150,1167800
2001-12-17,16.299999,17.200001,16.290001,17.150000,12.578230,882600
2001-12-24,17.090000,17.450001,16.965000,16.965000,12.442549,271800
2001-12-31,17.000000,17.709999,16.850000,17.365000,12.735916,846800
2002-01-07,17.150000,17.639999,14.945000,15.195000,11.144385,3085800
2002-01-14,15.250000,15.250000,14.875000,14.955000,10.968367,2311400
2002-01-21,14.975000,15.400000,14.925000,15.265000,11.195729,1951000
2002-01-28,15.315000,16.315001,15.125000,15.975000,11.716455,1212000
2002-02-04,15.975000,16.575001,15.670000,16.575001,12.156510,715600
2002-02-11,16.500000,17.070000,16.200001,16.895000,12.437923,1199800
2002-02-18,16.775000,17.125000,16.625000,16.915001,12.452649,995000
2002-02-25,16.850000,17.559999,16.700001,17.290001,12.728718,914600
2002-03-04,17.325001,17.500000,16.950001,17.240000,12.691902,1589200
2002-03-11,17.150000,17.150000,16.559999,16.950001,12.478415,887200
2002-03-18,17.000000,17.275000,16.600000,16.680000,12.279645,1079600
2002-03-25,16.684999,17.594999,16.650000,17.525000,12.901722,741600
2002-04-01,17.500000,17.924999,17.280001,17.799999,13.104170,816000
2002-04-08,17.799999,18.775000,17.639999,18.760000,13.810918,814400
2002-04-15,18.700001,19.000000,17.900000,17.934999,13.203561,651400
2002-04-22,17.934999,18.450001,17.559999,18.195000,13.394963,933400
2002-04-29,18.170000,19.370001,18.025000,18.770000,13.818277,764000
2002-05-06,18.695000,18.850000,18.245001,18.325001,13.535310,561800
2002-05-13,18.424999,18.900000,18.219999,18.559999,13.708887,736200
2002-05-20,18.375000,18.504999,17.745001,18.055000,13.335883,769600
2002-05-27,18.000000,18.924999,17.660000,18.690001,13.804913,698200
2002-06-03,18.690001,18.700001,17.745001,18.350000,13.553775,826800
2002-06-10,18.325001,18.415001,16.485001,16.965000,12.530780,775800
2002-06-17,17.090000,17.750000,17.090000,17.400000,12.852085,573000
2002-06-24,17.350000,17.600000,15.375000,15.375000,11.356365,2018200
2002-07-01,15.560000,16.299999,15.205000,15.775000,11.651814,757600
2002-07-08,15.900000,15.900000,14.500000,14.675000,10.839329,655600
2002-07-15,14.625000,14.630000,13.300000,13.950000,10.303823,893800
2002-07-22,13.940000,14.210000,13.300000,14.100000,10.414617,1339800
2002-07-29,14.225000,15.485000,14.225000,14.700000,10.904646,966800
2002-08-05,14.695000,15.465000,14.300000,15.375000,11.405368,489200
2002-08-12,15.350000,15.635000,14.625000,15.575000,11.553730,284600
2002-08-19,15.575000,16.000000,15.400000,15.720000,11.661295,523400
2002-08-26,15.670000,16.150000,15.400000,16.049999,11.906092,568400
2002-09-02,16.000000,16.075001,15.125000,15.340000,11.379405,524200
2002-09-09,15.390000,15.820000,15.025000,15.200000,11.275552,371200
2002-09-16,15.190000,15.250000,14.450000,14.590000,10.823046,804200
2002-09-23,14.510000,14.510000,13.425000,13.495000,10.010760,942600
2002-09-30,13.475000,13.785000,12.900000,12.940000,9.599052,1137800
2002-10-07,12.875000,13.370000,12.420000,13.135000,9.743709,586000
2002-10-14,13.170000,13.320000,12.700000,13.075000,9.699202,982200
2002-10-21,13.000000,14.050000,12.945000,13.975000,10.366832,957400
2002-10-28,13.945000,14.045000,13.670000,14.025000,10.403921,522800
2002-11-04,14.000000,14.500000,14.000000,14.100000,10.504660,506400
2002-11-11,14.090000,14.600000,14.000000,14.350000,10.690908,479800
2002-11-18,14.440000,14.640000,14.155000,14.470000,10.780310,533800
2002-11-25,14.375000,15.175000,14.300000,14.940000,11.130463,450000
2002-12-02,15.040000,15.750000,15.040000,15.595000,11.618448,559600
2002-12-09,15.500000,15.650000,14.885000,15.175000,11.305542,483000
2002-12-16,15.175000,16.500000,15.050000,16.500000,12.292680,1772000
2002-12-23,16.250000,16.504999,15.000000,15.375000,11.454546,1117400
2002-12-30,15.415000,15.665000,15.225000,15.500000,11.547673,513000
2003-01-06,15.625000,15.745000,15.125000,15.300000,11.398675,488400
2003-01-13,15.325000,15.510000,14.900000,15.125000,11.268296,471400
2003-01-20,15.125000,15.145000,14.465000,14.565000,10.851088,305800
2003-01-27,14.450000,14.570000,13.880000,14.340000,10.683458,449600
2003-02-03,14.310000,14.375000,13.620000,13.625000,10.150776,489400
2003-02-10,13.665000,14.935000,13.255000,14.675000,10.978979,784400
2003-02-17,14.675000,15.115000,14.510000,15.035000,11.248307,1076800
2003-02-24,15.035000,15.175000,14.575000,15.150000,11.334344,769000
2003-03-03,15.135000,15.325000,14.725000,15.165000,11.345566,814000
2003-03-10,15.190000,15.250000,14.760000,15.175000,11.353045,1212400
2003-03-17,15.200000,16.510000,15.000000,16.510000,12.351816,777400
2003-03-24,16.475000,16.475000,15.830000,16.200001,12.119893,550200
2003-03-31,16.174999,16.500000,15.505000,15.925000,11.914153,777200
2003-04-07,16.000000,16.485001,15.325000,15.450000,11.558786,521800
2003-04-14,15.500000,16.059999,15.460000,15.650000,11.708411,605800
2003-04-21,15.775000,16.915001,15.775000,16.205000,12.123632,944400
2003-04-28,16.100000,17.355000,16.100000,17.065001,12.767029,1168600
2003-05-05,17.049999,17.665001,17.049999,17.665001,13.263673,892400
2003-05-12,17.575001,17.594999,17.350000,17.400000,13.064701,667200
2003-05-19,17.379999,17.385000,17.040001,17.219999,12.929547,698600
2003-05-26,17.275000,17.615000,17.215000,17.500000,13.139784,344000
2003-06-02,17.555000,18.010000,17.549999,17.915001,13.451383,434800
2003-06-09,17.910000,18.049999,17.600000,17.674999,13.271180,632200
2003-06-16,17.674999,18.250000,17.545000,17.549999,13.177324,694000
2003-06-23,17.549999,17.750000,17.000000,17.549999,13.177324,561400
2003-06-30,17.549999,18.295000,17.549999,18.200001,13.665376,458000
2003-07-07,18.225000,18.650000,18.150000,18.225000,13.684146,518800
2003-07-14,18.299999,18.950001,18.075001,18.350000,13.778003,723800
2003-07-21,18.350000,18.875000,18.290001,18.625000,13.984483,745000
2003-07-28,18.625000,18.975000,18.299999,18.575001,13.999557,740400
2003-08-04,18.350000,18.570000,17.799999,18.375000,13.848817,453600
2003-08-11,18.325001,19.000000,18.000000,19.000000,14.319874,404200
2003-08-18,19.049999,19.549999,18.900000,18.950001,14.282186,653600
2003-08-25,18.975000,19.600000,18.625000,19.580000,14.756999,386000
2003-09-01,19.500000,19.850000,18.950001,19.215000,14.481914,404800
2003-09-08,19.299999,19.725000,18.799999,19.450001,14.659026,476600
2003-09-15,19.475000,19.500000,18.620001,18.799999,14.169130,608000
2003-09-22,18.805000,19.094999,17.855000,17.855000,13.456908,989400
2003-09-29,17.955000,19.510000,17.955000,19.500000,14.696712,624200
2003-10-06,19.450001,19.719999,18.975000,19.475000,14.677869,577000
2003-10-13,19.490000,19.900000,18.375000,18.650000,14.056085,1046400
2003-10-20,18.650000,18.650000,17.930000,18.010000,13.573729,750600
2003-10-27,17.975000,18.025000,17.799999,17.900000,13.490829,568200
2003-11-03,17.900000,18.590000,17.690001,18.250000,13.808282,1085600
2003-11-10,18.200001,18.299999,17.875000,18.125000,13.713706,459400
2003-11-17,18.125000,18.174999,17.370001,17.514999,13.252172,769200
2003-11-24,17.520000,17.535000,17.250000,17.455000,13.206768,661600
2003-12-01,17.500000,18.525000,17.450001,18.400000,13.921775,1878000
2003-12-08,18.325001,18.500000,17.955000,18.395000,13.917990,1400200
2003-12-15,18.650000,19.115000,18.415001,19.115000,14.462754,1388800
2003-12-22,19.065001,19.385000,19.065001,19.385000,14.667041,481800
2003-12-29,19.500000,19.740000,19.150000,19.280001,14.587602,729000
2004-01-05,19.280001,20.125000,19.230000,20.000000,15.132356,1322400
2004-01-12,19.950001,20.275000,19.504999,19.850000,15.018867,715200
2004-01-19,19.799999,20.530001,19.770000,19.910000,15.064267,834600
2004-01-26,19.940001,20.400000,19.750000,20.035000,15.158841,598800
2004-02-02,20.049999,20.150000,19.580000,20.010000,15.139931,499800
2004-02-09,20.125000,21.000000,20.125000,20.264999,15.386629,564800
2004-02-16,20.389999,20.600000,20.000000,20.150000,15.299307,529000
2004-02-23,20.125000,20.510000,19.750000,20.225000,15.356252,732600
2004-03-01,20.325001,20.535000,20.025000,20.225000,15.356252,590000
2004-03-08,20.240000,20.340000,19.125000,19.200001,14.578003,657200
2004-03-15,19.225000,19.450001,18.625000,19.195000,14.574200,778000
2004-03-22,19.125000,19.275000,18.355000,18.809999,14.281888,955800
2004-03-29,18.875000,19.590000,18.870001,19.590000,14.874125,743000
2004-04-05,19.625000,20.000000,19.575001,19.709999,14.965226,477200
2004-04-12,19.760000,20.389999,19.250000,20.070000,15.238564,562800
2004-04-19,20.100000,21.290001,20.000000,20.605000,15.644773,951600
2004-04-26,20.500000,20.775000,19.174999,19.650000,14.919677,1084400
2004-05-03,19.549999,20.270000,19.510000,19.660000,14.979698,945600
2004-05-10,19.625000,19.674999,18.850000,19.225000,14.648252,797600
2004-05-17,19.125000,19.825001,18.799999,19.625000,14.953026,873800
2004-05-24,19.700001,20.459999,19.700001,20.325001,15.486388,989800
2004-05-31,20.174999,20.629999,20.049999,20.389999,15.535910,729800
2004-06-07,20.350000,20.850000,20.299999,20.434999,15.570193,948800
2004-06-14,20.500000,21.580000,20.475000,21.530001,16.404520,1248200
2004-06-21,21.450001,22.100000,21.275000,21.355000,16.271177,2577800
2004-06-28,21.405001,22.035000,21.230000,21.555000,16.423571,1176000
2004-07-05,21.575001,21.660000,20.875000,21.094999,16.073072,675800
2004-07-12,21.100000,21.690001,20.825001,21.180000,16.137846,952200
2004-07-19,21.400000,22.430000,21.174999,21.209999,16.160696,1646400
2004-07-26,21.309999,21.365000,20.775000,21.155001,16.231384,1678800
2004-08-02,21.055000,21.629999,20.475000,20.475000,15.709647,1033000
2004-08-09,20.480000,21.480000,20.455000,20.955000,16.077930,887200
2004-08-16,20.905001,22.225000,20.885000,22.190001,17.025488,816000
2004-08-23,22.340000,22.850000,21.975000,22.730000,17.439810,935800
2004-08-30,22.650000,23.450001,22.174999,22.950001,17.608610,749800
2004-09-06,22.950001,23.424999,22.514999,22.850000,17.531889,769200
2004-09-13,22.799999,23.150000,22.600000,22.764999,17.466673,677000
2004-09-20,22.600000,23.275000,22.309999,22.415001,17.198132,631000
2004-09-27,22.250000,22.799999,21.665001,22.799999,17.493530,1050200
2004-10-04,22.625000,23.155001,22.299999,22.500000,17.263340,1008600
2004-10-11,22.504999,23.540001,22.250000,23.000000,17.646969,1204200
2004-10-18,22.875000,23.875000,22.754999,23.004999,17.650805,1247000
2004-10-25,22.900000,24.004999,22.809999,23.459999,17.999916,1030000
2004-11-01,23.500000,24.985001,23.299999,24.815001,19.162415,1053000
2004-11-08,24.799999,25.025000,24.010000,25.000000,19.305269,896000
2004-11-15,25.000000,25.469999,24.825001,24.875000,19.208744,874800
2004-11-22,24.750000,25.770000,24.750000,25.555000,19.733850,602200
2004-11-29,25.655001,26.959999,25.500000,26.254999,20.274401,1028400
2004-12-06,26.254999,26.254999,25.125000,25.900000,20.000265,1321000
2004-12-13,26.000000,26.920000,25.924999,26.250000,20.270533,1002600
2004-12-20,26.375000,27.445000,26.120001,26.934999,20.799500,656000
2004-12-27,26.875000,27.110001,26.365000,26.389999,20.378649,553400
2005-01-03,26.475000,27.445000,24.395000,24.500000,18.919167,1252200
2005-01-10,24.375000,25.240000,23.900000,24.495001,18.915306,1115600
2005-01-17,24.400000,24.980000,24.000000,24.299999,18.764727,661400
2005-01-24,24.299999,24.424999,23.639999,23.775000,18.359310,694000
2005-01-31,23.825001,25.100000,23.825001,25.075001,19.363190,855000
2005-02-07,25.325001,25.325001,24.100000,24.844999,19.307394,837800
2005-02-14,24.750000,25.230000,24.469999,24.950001,19.388998,1019600
2005-02-21,24.825001,25.955000,24.450001,25.955000,20.169991,838800
2005-02-28,25.875000,26.674999,25.355000,26.410000,20.523573,968600
2005-03-07,26.350000,26.629999,25.430000,25.775000,20.030107,831000
2005-03-14,25.674999,26.400000,25.264999,25.584999,19.882458,1110000
2005-03-21,25.650000,25.905001,24.660000,24.945000,19.385101,695400
2005-03-28,25.025000,26.600000,24.805000,26.500000,20.593515,1731600
2005-04-04,26.559999,27.434999,26.200001,26.379999,20.500265,1121000
2005-04-11,26.440001,26.684999,24.350000,24.495001,19.035400,1873200
2005-04-18,24.250000,25.510000,23.844999,24.674999,19.175283,1531200
2005-04-25,24.655001,24.934999,23.500000,24.115000,18.740101,1383200
2005-05-02,24.150000,25.530001,24.090000,25.500000,19.941036,1183200
2005-05-09,25.535000,25.745001,24.504999,24.665001,19.288069,1114800
2005-05-16,24.684999,26.305000,24.584999,25.459999,19.909750,1081800
2005-05-23,25.465000,25.955000,24.930000,25.580000,20.003593,982800
2005-05-30,25.495001,25.495001,24.500000,24.674999,19.295883,954200
2005-06-06,24.715000,25.320000,23.975000,24.510000,19.166853,991600
2005-06-13,24.375000,25.475000,24.375000,24.900000,19.471827,1224000
2005-06-20,24.780001,25.065001,24.250000,24.770000,19.370174,2689200
2005-06-27,24.695000,25.690001,24.500000,25.500000,19.941036,1654000
2005-07-04,25.430000,25.695000,24.625000,25.655001,20.062243,598200
2005-07-11,25.740000,26.049999,24.990000,25.105000,19.632143,846000
2005-07-18,25.065001,25.495001,24.700001,25.180000,19.690792,1052200
2005-07-25,25.184999,25.495001,24.840000,24.924999,19.491381,1057200
2005-08-01,24.980000,25.320000,24.830000,25.000000,19.705259,1107400
2005-08-08,25.100000,25.365000,24.930000,25.065001,19.756489,872000
2005-08-15,25.065001,25.350000,24.305000,24.565001,19.362381,863200
2005-08-22,24.620001,24.764999,24.110001,24.110001,19.003748,408400
2005-08-29,24.004999,25.225000,23.900000,24.905001,19.630379,684400
2005-09-05,25.000000,25.500000,24.580000,24.795000,19.543673,422800
2005-09-12,24.725000,25.125000,24.004999,24.299999,19.153513,693600
2005-09-19,24.250000,24.520000,23.555000,24.065001,18.968281,1154800
2005-09-26,25.000000,25.370001,24.635000,24.905001,19.630379,1038000
2005-10-03,25.025000,25.450001,24.525000,24.959999,19.673717,1070400
2005-10-10,24.725000,26.105000,24.480000,25.975000,20.473757,1332400
2005-10-17,26.000000,26.450001,23.799999,24.275000,19.133799,1987400
2005-10-24,24.150000,25.385000,24.115000,25.375000,20.000835,1678400
2005-10-31,25.264999,26.325001,25.135000,26.090000,20.564398,935000
2005-11-07,26.150000,26.540001,25.575001,26.450001,21.013784,747600
2005-11-14,26.325001,27.215000,26.075001,26.809999,21.299793,588600
2005-11-21,26.754999,27.070000,26.500000,27.010000,21.458691,425800
2005-11-28,27.174999,27.500000,26.379999,27.350000,21.728813,1096800
2005-12-05,27.299999,27.740000,26.885000,27.245001,21.645395,1249400
2005-12-12,27.260000,27.500000,26.200001,26.299999,20.894615,1093400
2005-12-19,26.174999,26.575001,26.000000,26.535000,21.081312,1199400
2005-12-26,26.485001,26.855000,26.075001,26.100000,20.735718,462200
2006-01-02,26.184999,27.030001,25.855000,26.795000,21.287872,818800
2006-01-09,26.795000,27.375000,26.795000,27.075001,21.510334,605600
2006-01-16,27.020000,27.600000,26.754999,27.530001,21.871811,437000
2006-01-23,27.540001,27.775000,26.820000,27.389999,21.760592,621400
2006-01-30,27.290001,28.434999,27.250000,27.680000,21.990986,834400
2006-02-06,27.680000,28.725000,27.145000,28.480000,22.792994,694600
2006-02-13,28.415001,28.415001,26.690001,27.135000,21.716568,1205600
2006-02-20,26.985001,27.129999,26.709999,26.889999,21.520493,689600
2006-02-27,26.809999,27.100000,26.225000,26.709999,21.376442,795000
2006-03-06,26.740000,27.150000,26.240000,27.150000,21.728577,844600
2006-03-13,27.084999,27.665001,26.965000,27.500000,22.008678,801200
2006-03-20,27.500000,27.655001,27.090000,27.230000,21.792606,705600
2006-03-27,27.165001,27.670000,26.754999,27.625000,22.108725,900200
2006-04-03,27.625000,27.665001,26.549999,26.790001,21.440464,807800
2006-04-10,26.715000,26.725000,26.160000,26.375000,21.108330,487600
2006-04-17,26.500000,27.110001,25.510000,26.150000,20.928263,987800
2006-04-24,26.200001,26.510000,25.690001,26.205000,20.972279,1136000
2006-05-01,26.205000,27.084999,26.075001,26.985001,21.762398,796000
2006-05-08,27.020000,27.350000,26.110001,26.455000,21.334972,642800
2006-05-15,26.455000,26.745001,25.885000,26.100000,21.048677,738200
2006-05-22,26.035000,26.315001,25.200001,25.865000,20.859159,1224200
2006-05-29,25.850000,26.410000,25.674999,26.315001,21.222061,998800
2006-06-05,26.315001,26.549999,25.355000,25.875000,20.867224,1258200
2006-06-12,25.865000,25.995001,24.889999,25.340000,20.435768,1033600
2006-06-19,25.400000,25.475000,24.805000,25.254999,20.367214,1018600
2006-06-26,25.325001,26.500000,24.805000,24.805000,20.004309,4801400
2006-07-03,25.180000,25.674999,24.565001,24.625000,19.859140,1874200
2006-07-10,24.639999,25.370001,23.430000,23.879999,19.258326,1663400
2006-07-17,23.879999,25.799999,23.504999,24.355000,19.641396,1891600
2006-07-24,24.575001,25.950001,24.575001,25.809999,20.814798,1608400
2006-07-31,25.750000,26.370001,25.195000,26.094999,21.230171,1342400
2006-08-07,25.985001,25.995001,24.934999,25.264999,20.554903,1335200
2006-08-14,25.299999,26.375000,25.145000,26.055000,21.197622,950000
2006-08-21,25.950001,26.065001,25.059999,25.209999,20.510160,900400
2006-08-28,25.209999,26.325001,25.200001,25.754999,20.953552,1275600
2006-09-04,25.690001,26.120001,24.674999,24.995001,20.335238,993600
2006-09-11,24.875000,25.750000,24.719999,25.080000,20.404387,1398600
2006-09-18,24.995001,25.424999,24.450001,24.795000,20.172522,1550800
2006-09-25,24.875000,26.075001,24.670000,25.440001,20.697290,1802200
2006-10-02,25.285000,26.375000,24.695000,26.219999,21.331863,1831000
2006-10-09,26.059999,27.565001,26.000000,27.465000,22.344761,1426600
2006-10-16,27.549999,28.375000,27.000000,28.025000,22.800364,1588000
2006-10-23,27.980000,28.375000,27.385000,27.565001,22.426126,1484400
2006-10-30,27.350000,27.980000,26.879999,27.905001,22.702740,1773600
2006-11-06,27.995001,28.725000,27.760000,28.530001,23.397963,1716200
2006-11-13,28.475000,30.344999,28.400000,30.250000,24.808563,2258600
2006-11-20,30.254999,30.469999,29.850000,30.225000,24.788061,1140200
2006-11-27,30.049999,30.635000,29.705000,30.250000,24.808563,1789000
2006-12-04,30.350000,31.145000,29.795000,30.014999,24.615839,1712400
2006-12-11,30.055000,30.209999,29.480000,29.885000,24.509220,1706600
2006-12-18,29.969999,30.000000,28.920000,29.125000,23.885929,1753000
2006-12-25,29.025000,30.240000,29.025000,29.520000,24.209881,856400
2007-01-01,29.750000,30.350000,28.879999,29.100000,23.865435,1069000
2007-01-08,29.004999,30.219999,28.725000,30.184999,24.755253,1092800
2007-01-15,30.475000,31.000000,29.715000,30.350000,24.890575,1253200
2007-01-22,30.469999,30.900000,29.844999,30.500000,25.013594,1890800
2007-01-29,30.395000,30.990000,30.305000,30.809999,25.267830,1760600
2007-02-05,30.809999,35.169998,30.150000,33.000000,27.260519,4221800
2007-02-12,33.040001,33.294998,32.145000,32.639999,26.963131,2464000
2007-02-19,32.580002,33.525002,32.485001,33.395000,27.586821,1979400
2007-02-26,33.525002,33.875000,32.250000,32.889999,27.169649,3501000
2007-03-05,32.570000,33.674999,32.419998,33.220001,27.442257,2301400
2007-03-12,33.220001,33.724998,32.250000,32.820000,27.111830,1882600
2007-03-19,32.965000,34.279999,32.865002,34.255001,28.297245,1298600
2007-03-26,34.125000,34.169998,33.195000,33.465000,27.644642,1461400
2007-04-02,33.599998,34.380001,33.340000,34.299999,28.334415,749400
2007-04-09,34.275002,34.990002,33.680000,34.674999,28.644201,1106800
2007-04-16,34.875000,38.490002,34.400002,37.560001,31.027431,3148200
2007-04-23,37.005001,38.290001,36.810001,37.900002,31.308304,1859400
2007-04-30,37.799999,37.799999,36.540001,37.494999,30.973722,1758000
2007-05-07,37.500000,37.720001,35.990002,37.209999,30.950623,1994200
2007-05-14,37.259998,37.470001,36.150002,36.810001,30.617908,2012200
2007-05-21,36.700001,37.799999,36.580002,37.099998,30.859125,1772700
2007-05-28,37.169998,38.310001,37.009998,38.049999,31.649311,1563700
2007-06-04,37.959999,38.299999,36.509998,36.980000,30.759321,1189300
2007-06-11,36.799999,38.169998,35.730000,37.919998,31.541204,1670000
2007-06-18,37.939999,38.000000,35.480000,35.810001,29.786127,1597400
2007-06-25,35.689999,36.779999,35.000000,35.560001,29.578186,1521700
2007-07-02,35.860001,37.130001,35.820000,37.080002,30.842506,738600
2007-07-09,37.209999,37.910000,36.349998,37.910000,31.532873,1300100
2007-07-16,37.730000,39.419998,36.580002,37.950001,31.566145,3928000
2007-07-23,38.099998,38.340000,34.990002,35.380001,29.428469,2597000
2007-07-30,35.430000,37.369999,35.000000,36.180000,30.203218,3160100
2007-08-06,36.279999,40.029999,34.950001,38.840000,32.423828,3521400
2007-08-13,39.400002,40.090000,35.430000,37.580002,31.371958,2574500
2007-08-20,37.619999,37.830002,35.750000,36.599998,30.553846,2037000
2007-08-27,36.419998,36.660000,34.840000,36.330002,30.328455,1297300
2007-09-03,36.099998,36.650002,33.919998,34.200001,28.550316,1750300
2007-09-10,34.450001,35.090000,33.369999,34.110001,28.475189,2081100
2007-09-17,33.959999,37.020000,33.700001,36.619999,30.570538,2299600
2007-09-24,36.540001,38.220001,35.950001,37.869999,31.614044,1291300
2007-10-01,37.790001,40.110001,37.750000,39.930000,33.333759,1216000
2007-10-08,39.799999,40.110001,38.389999,39.590000,33.049923,1183500
2007-10-15,39.540001,42.470001,38.529999,41.000000,34.226986,2358600
2007-10-22,40.639999,44.730000,40.639999,44.389999,37.056984,2942300
2007-10-29,44.299999,44.750000,42.090000,42.959999,35.863194,2191100
2007-11-05,42.299999,44.000000,41.000000,41.619999,34.846611,1869800
2007-11-12,41.520000,43.259998,40.900002,41.439999,34.695915,1835200
2007-11-19,41.000000,42.459999,39.830002,42.000000,35.164772,1287000
2007-11-26,41.970001,43.509998,40.419998,42.209999,35.340603,2401700
2007-12-03,42.060001,43.770000,40.610001,43.450001,36.378799,1181700
2007-12-10,43.459999,44.009998,41.610001,41.720001,34.930344,1474800
2007-12-17,41.389999,42.740002,39.689999,42.410000,35.508049,2627600
2007-12-24,42.680000,43.509998,41.340000,41.689999,34.905231,824600
2007-12-31,41.410000,42.720001,39.000000,40.410000,33.833538,1923800
2008-01-07,40.610001,40.849998,38.000000,38.000000,31.815744,2661100
2008-01-14,38.259998,39.380001,33.130001,35.110001,29.396074,3079000
2008-01-21,33.650002,36.799999,32.869999,36.360001,30.442657,2722300
2008-01-28,36.419998,38.720001,35.230000,38.060001,31.865990,2538200
2008-02-04,38.110001,38.150002,33.869999,36.349998,30.540770,3308700
2008-02-11,36.290001,39.820000,36.290001,38.939999,32.716866,8131400
2008-02-18,39.240002,39.470001,37.799999,38.779999,32.582428,1765100
2008-02-25,38.639999,40.070000,37.290001,37.480000,31.490196,2430000
2008-03-03,37.290001,38.110001,35.020000,35.779999,30.061869,3444900
2008-03-10,35.970001,37.040001,34.700001,35.400002,29.742603,2817700
2008-03-17,34.799999,38.880001,34.509998,37.700001,31.675028,3371500
2008-03-24,37.840000,39.759998,37.810001,38.549999,32.389187,1545800
2008-03-31,38.459999,41.180000,38.220001,40.560001,34.077953,1741000
2008-04-07,40.709999,41.139999,39.560001,39.820000,33.456226,1548200
2008-04-14,39.750000,45.419998,39.200001,44.270000,37.195053,3733000
2008-04-21,44.330002,45.400002,43.389999,44.950001,37.766388,2351200
2008-04-28,45.060001,45.330002,43.810001,44.090000,37.043816,1945300
2008-05-05,44.150002,44.750000,42.490002,43.730000,36.847912,1740500
2008-05-12,43.980000,45.209999,43.259998,44.720001,37.682114,1338700
2008-05-19,44.570000,44.849998,43.200001,43.950001,37.033287,2100600
2008-05-26,44.220001,45.889999,43.230000,44.720001,37.682114,2207700
2008-06-02,44.889999,46.189999,43.799999,44.759998,37.715816,2113100
2008-06-09,45.139999,45.139999,42.599998,43.259998,36.451893,2422800
2008-06-16,42.950001,43.419998,41.849998,42.139999,35.508144,2204100
2008-06-23,42.290001,42.830002,40.740002,42.360001,35.693531,6955000
2008-06-30,42.400002,42.560001,40.490002,41.160000,34.682384,2128100
2008-07-07,41.450001,42.080002,40.250000,41.419998,34.901459,1693200
2008-07-14,41.880001,43.639999,37.209999,38.070000,32.078671,4550500
2008-07-21,38.389999,38.950001,36.540001,37.590000,31.674204,3353900
2008-07-28,37.169998,39.880001,36.750000,38.709999,32.617954,2234700
2008-08-04,38.810001,40.299999,37.689999,39.730000,33.611549,1673600
2008-08-11,39.730000,41.110001,39.240002,40.480000,34.246052,1334700
2008-08-18,40.529999,40.529999,38.869999,40.099998,33.924568,1414400
2008-08-25,39.860001,41.060001,39.009998,40.389999,34.169907,1445900
2008-09-01,40.790001,41.779999,38.959999,39.740002,33.620022,1257100
2008-09-08,40.619999,40.930000,38.930000,40.279999,34.076851,1722100
2008-09-15,39.150002,44.029999,37.650002,41.389999,35.015903,2824100
2008-09-22,41.070000,41.570000,39.130001,39.750000,33.628475,1603900
2008-09-29,39.000000,39.750000,36.299999,36.520000,30.895899,2608000
2008-10-06,35.490002,36.680000,23.740000,33.529999,28.366358,3590700
2008-10-13,34.360001,35.939999,27.010000,32.230000,27.266554,3363400
2008-10-20,32.529999,32.990002,25.490000,27.160000,22.977335,3792200
2008-10-27,26.780001,30.620001,25.889999,30.320000,25.650698,2935300
2008-11-03,30.309999,32.330002,30.010000,31.590000,26.873535,1836500
2008-11-10,32.200001,32.290001,28.520000,29.879999,25.418840,1873000
2008-11-17,29.530001,31.129999,27.840000,29.230000,24.865892,3169600
2008-11-24,29.520000,33.439999,29.379999,33.439999,28.447315,1638200
2008-12-01,32.490002,32.490002,29.250000,32.139999,27.341419,2902000
2008-12-08,32.900002,33.849998,30.090000,32.240002,27.426493,3632800
2008-12-15,32.500000,34.930000,31.520000,33.439999,28.447315,2768500
2008-12-22,33.169998,33.689999,32.070000,33.580002,28.566423,1274300
2008-12-29,33.610001,36.080002,32.930000,35.820000,30.471992,1357600
2009-01-05,35.689999,36.070000,32.169998,32.540001,27.681702,3166700
2009-01-12,32.560001,32.750000,29.370001,30.440001,25.895231,3129600
2009-01-19,30.230000,30.580000,29.040001,30.010000,25.529430,1926800
2009-01-26,30.049999,32.320000,29.910000,30.820000,26.218496,1885300
2009-02-02,30.379999,30.930000,29.020000,30.860001,26.382832,4045900
2009-02-09,30.600000,30.830000,28.590000,29.180000,24.946571,2414300
2009-02-16,28.240000,28.540001,26.700001,27.320000,23.356415,1664600
2009-02-23,27.559999,28.540001,26.250000,28.059999,23.989054,3144700
2009-03-02,27.620001,27.840000,24.950001,25.549999,21.843208,2740500
2009-03-09,25.450001,27.549999,25.110001,27.420000,23.441906,1817800
2009-03-16,27.580000,30.510000,27.100000,29.490000,25.211596,2348400
2009-03-23,30.080000,32.509998,29.540001,32.099998,27.442936,1408600
2009-03-30,31.410000,33.209999,30.290001,32.849998,28.084124,1950600
2009-04-06,32.730000,33.549999,31.219999,33.500000,28.639826,1275200
2009-04-13,33.189999,33.189999,29.100000,29.670000,25.365482,2641600
2009-04-20,29.240000,30.469999,28.610001,30.280001,25.886982,2235700
2009-04-27,29.809999,31.629999,29.580000,30.690001,26.237490,1816400
2009-05-04,30.850000,31.930000,30.490000,31.360001,26.943764,1696700
2009-05-11,30.680000,31.280001,30.010000,30.650000,26.333752,1407800
2009-05-18,30.900000,31.620001,30.400000,30.680000,26.359529,1239100
2009-05-25,30.530001,31.900000,30.070000,31.010000,26.643055,1246900
2009-06-01,31.549999,33.310001,31.549999,32.439999,27.871675,1714200
2009-06-08,32.080002,34.259998,32.040001,34.020000,29.229181,1461500
2009-06-15,33.840000,34.020000,32.740002,32.910000,28.275480,1174600
2009-06-22,32.730000,33.450001,31.910000,33.360001,28.662121,1209400
2009-06-29,33.490002,34.650002,33.080002,33.650002,28.911280,720000
2009-07-06,33.360001,33.480000,32.139999,32.709999,28.103655,871100
2009-07-13,32.750000,36.099998,32.360001,35.139999,30.191448,1323700
2009-07-20,35.389999,36.490002,35.119999,36.060001,30.981892,1001600
2009-07-27,35.900002,35.900002,34.480000,34.919998,30.002430,1258200
2009-08-03,35.340000,36.090000,34.970001,35.320000,30.472864,769100
2009-08-10,35.110001,36.209999,34.580002,35.450001,30.585016,694500
2009-08-17,34.959999,36.000000,34.299999,35.630001,30.740320,710900
2009-08-24,35.759998,35.950001,34.470001,34.770000,29.998341,559000
2009-08-31,34.470001,34.849998,33.580002,34.299999,29.592838,728400
2009-09-07,34.700001,35.660000,34.189999,35.480000,30.610903,748600
2009-09-14,35.279999,37.470001,35.110001,36.700001,31.663473,1029700
2009-09-21,36.470001,38.090000,36.209999,36.380001,31.387388,939000
2009-09-28,36.639999,37.650002,36.029999,36.119999,31.163067,805000
2009-10-05,36.209999,37.980000,35.980000,37.980000,32.767811,822000
2009-10-12,38.070000,38.959999,36.500000,37.490002,32.345066,1424700
2009-10-19,37.689999,37.779999,36.430000,36.959999,31.887802,1077600
2009-10-26,36.849998,37.459999,35.040001,35.310001,30.464235,1333200
2009-11-02,35.380001,35.759998,34.520000,35.439999,30.700998,1196400
2009-11-09,35.619999,36.270000,35.450001,36.000000,31.186110,877500
2009-11-16,36.340000,37.070000,35.750000,36.340000,31.480646,1063500
2009-11-23,36.860001,37.299999,35.610001,35.910000,31.108145,255300
2009-11-30,35.810001,36.990002,35.419998,36.529999,31.645247,812100
2009-12-07,36.410000,37.090000,36.040001,36.580002,31.688551,607800
2009-12-14,36.939999,36.980000,35.840000,35.930000,31.125469,890400
2009-12-21,36.150002,36.439999,35.959999,36.369999,31.506639,679900
2009-12-28,36.419998,36.520000,35.740002,35.740002,30.960886,561500
2010-01-04,35.889999,36.889999,35.889999,36.779999,31.861809,1007200
2010-01-11,36.840000,37.009998,36.070000,36.240002,31.394016,686200
2010-01-18,36.110001,36.889999,35.930000,36.060001,31.238073,537800
2010-01-25,36.220001,36.590000,35.480000,35.480000,30.735645,729000
2010-02-01,35.410000,36.310001,34.459999,35.029999,30.345819,769100
2010-02-08,35.029999,38.490002,34.869999,38.040001,33.093224,1935900
2010-02-15,38.400002,38.410000,37.240002,38.119999,33.162827,1068100
2010-02-22,38.340000,38.650002,37.560001,38.529999,33.519516,775400
2010-03-01,38.560001,40.369999,38.340000,40.349998,35.102837,794300
2010-03-08,40.299999,40.830002,40.000000,40.400002,35.146336,1269100
2010-03-15,40.389999,40.849998,39.689999,39.810001,34.633060,893200
2010-03-22,39.509998,40.000000,38.790001,39.119999,34.032791,908600
2010-03-29,39.169998,39.840000,38.630001,39.500000,34.363369,419500
2010-04-05,39.529999,40.930000,39.220001,40.919998,35.598713,734800
2010-04-12,41.000000,44.360001,40.799999,42.849998,37.277729,1534400
2010-04-19,42.639999,43.349998,42.250000,43.240002,37.617012,878700
2010-04-26,43.270000,44.180000,42.500000,43.040001,37.443031,1272900
2010-05-03,43.290001,44.119999,39.650002,40.340000,35.216301,1425400
2010-05-10,41.610001,42.840000,40.619999,40.810001,35.626598,1183200
2010-05-17,40.869999,41.810001,37.939999,38.709999,33.793327,1385800
2010-05-24,38.560001,40.130001,37.340000,39.860001,34.797272,1164300
2010-05-31,39.720001,40.139999,38.310001,38.459999,33.575085,975000
2010-06-07,38.560001,39.160000,37.410000,39.130001,34.159985,793700
2010-06-14,39.360001,40.900002,38.880001,40.520000,35.373440,828700
2010-06-21,40.860001,41.119999,38.000000,38.740002,33.819542,916200
2010-06-28,38.900002,39.500000,36.910000,38.029999,33.199703,926500
2010-07-05,38.349998,39.380001,37.169998,39.230000,34.247288,510300
2010-07-12,39.230000,40.889999,38.810001,39.830002,34.771076,677400
2010-07-19,39.830002,42.840000,39.180000,42.700001,37.276558,999400
2010-07-26,42.910000,43.820000,42.320000,43.070000,37.599556,1021500
2010-08-02,43.779999,44.049999,43.099998,43.770000,38.371307,840900
2010-08-09,44.000000,44.000000,41.099998,41.849998,36.688126,800800
2010-08-16,41.689999,43.099998,41.400002,42.060001,36.872227,522800
2010-08-23,42.360001,42.360001,40.310001,42.009998,36.828392,560100
2010-08-30,41.889999,43.939999,40.750000,43.849998,38.441441,628600
2010-09-06,43.779999,44.549999,43.349998,44.009998,38.581718,352700
2010-09-13,44.380001,46.020000,44.380001,45.270000,39.686298,1240200
2010-09-20,45.349998,45.660000,43.970001,44.830002,39.300568,612300
2010-09-27,44.759998,46.549999,44.209999,45.279999,39.695072,725600
2010-10-04,45.290001,46.750000,44.900002,46.439999,40.711983,595900
2010-10-11,46.389999,47.450001,46.160000,46.759998,40.992516,593500
2010-10-18,46.939999,47.610001,44.400002,45.049999,39.493431,1160700
2010-10-25,45.200001,45.709999,44.700001,44.880001,39.344395,877100
2010-11-01,45.029999,46.500000,44.540001,46.419998,40.694450,683000
2010-11-08,46.080002,46.919998,45.980000,46.009998,40.497444,668500
2010-11-15,46.209999,46.549999,45.070000,45.580002,40.118973,581200
2010-11-22,45.299999,46.669998,44.950001,46.349998,40.796707,345600
2010-11-29,46.029999,48.419998,45.189999,48.220001,42.442661,731600
2010-12-06,48.160000,48.369999,46.360001,47.060001,41.421635,1102400
2010-12-13,47.169998,47.509998,46.590000,47.110001,41.465649,931100
2010-12-20,47.160000,48.450001,46.990002,47.869999,42.134605,498400
2010-12-27,47.709999,48.360001,47.410000,47.570000,41.870544,483300
2011-01-03,47.779999,48.299999,47.080002,47.380001,41.703297,597400
2011-01-10,47.220001,48.520000,46.750000,48.470001,42.662720,666200
2011-01-17,48.349998,49.139999,47.700001,48.009998,42.257820,771400
2011-01-24,48.130001,48.939999,47.700001,47.810001,42.081791,665500
2011-01-31,47.790001,48.880001,47.529999,48.599998,42.777138,654600
2011-02-07,48.810001,50.060001,48.529999,49.480000,43.716290,724000
2011-02-14,49.730000,49.900002,48.900002,49.490002,43.725132,1051500
2011-02-21,48.840000,49.330002,46.950001,48.040001,42.444019,775100
2011-02-28,48.209999,48.869999,47.230000,47.939999,42.355675,979400
2011-03-07,48.090000,49.759998,47.349998,48.139999,42.532379,962800
2011-03-14,47.740002,48.560001,46.500000,48.000000,42.408680,957800
2011-03-21,48.459999,49.750000,48.310001,48.970001,43.265701,556700
2011-03-28,49.150002,51.110001,48.520000,50.779999,44.864849,718800
2011-04-04,50.939999,51.869999,50.130001,50.360001,44.493786,557100
2011-04-11,50.540001,50.540001,49.150002,50.230000,44.378922,388600
2011-04-18,49.740002,51.509998,48.849998,51.369999,45.386131,551800
2011-04-25,51.250000,52.750000,50.770000,52.450001,46.340321,747500
2011-05-02,52.540001,53.020000,51.029999,51.259998,45.448185,846700
2011-05-09,51.340000,53.080002,51.200001,52.310001,46.379150,929800
2011-05-16,52.049999,53.799999,51.669998,52.520000,46.565334,1251100
2011-05-23,51.700001,52.439999,51.169998,52.230000,46.308208,729300
2011-05-30,52.619999,53.480000,51.110001,51.150002,45.350666,1063700
2011-06-06,51.160000,51.369999,50.270000,50.400002,44.685703,828000
2011-06-13,51.779999,51.939999,50.060001,50.480000,44.756626,1219200
2011-06-20,50.450001,51.419998,49.930000,50.610001,44.871880,724900
2011-06-27,50.619999,53.340000,50.230000,53.240002,47.203705,988400
2011-07-04,53.259998,54.660000,52.830002,54.209999,48.063725,722800
2011-07-11,53.500000,54.099998,52.180000,52.660000,46.689468,677100
2011-07-18,52.400002,53.790001,47.610001,53.040001,47.026379,1493700
2011-07-25,52.560001,53.240002,49.790001,51.049999,45.261990,1216300
2011-08-01,51.529999,51.660000,46.830002,47.740002,42.509815,1465300
2011-08-08,46.320000,48.250000,44.959999,47.799999,42.563229,1878400
2011-08-15,47.480000,48.630001,45.520000,46.660000,41.548115,1497300
2011-08-22,47.799999,48.700001,46.500000,48.500000,43.186531,1244600
2011-08-29,49.419998,51.119999,47.709999,47.990002,42.732410,1016300
2011-09-05,46.669998,48.980000,46.619999,48.080002,42.812557,1336900
2011-09-12,47.669998,50.080002,47.090000,49.230000,43.836571,1056500
2011-09-19,48.259998,49.139999,45.299999,46.150002,41.093994,1193700
2011-09-26,46.410000,48.470001,44.660000,44.669998,39.776142,1013000
2011-10-03,44.349998,46.880001,41.980000,45.950001,40.915905,1141300
2011-10-10,46.830002,49.060001,46.770000,48.639999,43.311211,938800
2011-10-17,48.299999,48.840000,46.919998,48.490002,43.177628,656300
2011-10-24,48.750000,49.849998,47.930000,49.130001,43.747528,923000
2011-10-31,48.689999,49.240002,45.980000,48.759998,43.418053,1136900
2011-11-07,48.560001,48.900002,46.750000,48.599998,43.275578,1129600
2011-11-14,48.340000,49.160000,47.470001,48.029999,42.961868,991000
2011-11-21,47.310001,48.070000,46.480000,46.509998,41.602257,878800
2011-11-28,47.560001,51.750000,47.560001,50.950001,45.573761,1432000
2011-12-05,51.000000,51.900002,49.680000,50.730000,45.376961,998600
2011-12-12,50.119999,51.340000,48.799999,51.180000,45.779488,1534100
2011-12-19,51.470001,52.730000,49.849998,52.580002,47.031757,813300
2011-12-26,52.330002,52.869999,51.630001,52.169998,46.665016,456200
2012-01-02,53.180000,53.439999,51.439999,51.849998,46.378788,908000
2012-01-09,52.099998,52.410000,51.119999,51.480000,46.047825,956900
2012-01-16,51.840000,52.369999,51.310001,51.549999,46.110435,671900
2012-01-23,51.529999,52.549999,51.009998,52.279999,46.763416,968700
2012-01-30,51.750000,53.799999,51.259998,53.500000,47.854671,1001200
2012-02-06,53.349998,53.820000,51.150002,53.040001,47.643711,910100
2012-02-13,53.279999,53.570000,51.930000,52.820000,47.446083,801800
2012-02-20,53.029999,53.599998,51.650002,53.230000,47.814373,714300
2012-02-27,53.040001,53.470001,52.200001,53.200001,47.787434,1551800
2012-03-05,53.020000,53.900002,51.959999,53.540001,48.092834,1390700
2012-03-12,53.509998,54.919998,53.270000,54.740002,49.170750,1372600
2012-03-19,54.549999,54.959999,53.230000,54.290001,48.766525,870000
2012-03-26,54.529999,55.000000,54.459999,54.770000,49.197685,1031400
2012-04-02,54.759998,55.490002,54.000000,54.340000,48.811440,846600
2012-04-09,53.709999,54.639999,52.029999,54.080002,48.577896,1252000
2012-04-16,54.130001,55.049999,53.730000,54.889999,49.305481,1020700
2012-04-23,54.389999,55.110001,53.549999,54.790001,49.215656,1462400
2012-04-30,54.759998,55.389999,53.610001,53.720001,48.450970,1344000
2012-05-07,53.509998,54.110001,52.689999,53.389999,48.153336,952000
2012-05-14,52.830002,52.849998,49.630001,49.700001,44.825264,1049000
2012-05-21,49.820000,51.410000,49.740002,50.610001,45.646011,1112900
2012-05-28,51.029999,51.619999,49.360001,50.259998,45.330341,3360400
2012-06-04,50.250000,52.529999,49.689999,52.400002,47.260429,940100
2012-06-11,52.750000,52.930000,51.709999,52.270000,47.143188,856300
2012-06-18,52.180000,53.259998,51.000000,51.720001,46.647144,1088300
2012-06-25,51.189999,51.700001,50.060001,51.049999,46.042839,1024700
2012-07-02,51.070000,52.740002,50.919998,51.459999,46.412636,783600
2012-07-09,49.490002,50.209999,47.560001,49.840000,44.951527,2100600
2012-07-16,49.810001,50.810001,49.150002,50.110001,45.195045,839700
2012-07-23,49.470001,51.959999,48.349998,50.650002,45.682083,1556400
2012-07-30,50.720001,51.220001,48.080002,50.060001,45.149960,1153500
2012-08-06,50.060001,50.459999,49.509998,49.889999,44.996632,833400
2012-08-13,49.750000,50.869999,49.299999,50.619999,45.856880,733900
2012-08-20,50.680000,50.910000,50.000000,50.820000,46.038055,740000
2012-08-27,51.000000,51.139999,50.200001,50.650002,45.884045,900600
2012-09-03,50.720001,51.799999,50.070000,51.490002,46.645016,1469900
2012-09-10,50.700001,52.590000,50.330002,52.459999,47.523743,868400
2012-09-17,52.430000,53.189999,51.849998,52.669998,47.713974,1262600
2012-09-24,52.169998,53.029999,51.090000,51.709999,46.844299,1268300
2012-10-01,51.709999,53.000000,51.040001,52.570000,47.623383,1098000
2012-10-08,52.450001,52.720001,51.110001,51.230000,46.409470,722900
2012-10-15,51.209999,53.060001,50.930000,52.340000,47.415028,638600
2012-10-22,52.299999,52.650002,51.049999,51.650002,46.789959,691300
2012-10-29,50.799999,53.360001,49.169998,49.490002,44.833191,1243000
2012-11-05,49.700001,50.750000,48.000000,48.020000,43.501534,1502500
2012-11-12,48.000000,48.349998,45.189999,46.189999,42.030548,2412200
2012-11-19,46.590000,47.630001,46.400002,47.619999,43.331783,912600
2012-11-26,47.410000,48.119999,46.709999,47.669998,43.377277,1364700
2012-12-03,48.020000,48.070000,46.610001,47.700001,43.404598,1151100
2012-12-10,47.619999,48.099998,46.840000,46.919998,42.694824,1139800
2012-12-17,46.990002,48.549999,46.980000,47.759998,43.459171,2045200
2012-12-24,47.650002,48.099998,47.189999,47.340000,43.077000,554400
2012-12-31,47.189999,49.630001,47.040001,49.619999,45.151680,1303300
2013-01-07,49.369999,51.869999,49.099998,51.040001,46.443817,1344700
2013-01-14,50.880001,52.330002,50.750000,52.330002,47.617649,783200
2013-01-21,52.220001,52.389999,51.730000,52.029999,47.344662,843500
2013-01-28,51.950001,52.250000,50.790001,52.230000,47.526646,1574800
2013-02-04,51.910000,53.430000,51.799999,52.509998,48.012138,1377400
2013-02-11,52.470001,53.310001,51.880001,53.110001,48.560749,878700
2013-02-18,53.360001,53.849998,51.950001,52.820000,48.295574,984400
2013-02-25,52.939999,53.990002,52.090000,53.470001,48.889896,1217800
2013-03-04,53.279999,55.250000,52.970001,55.250000,50.517429,766800
2013-03-11,55.169998,55.740002,54.950001,55.700001,50.928883,1268400
2013-03-18,55.340000,56.880001,55.160000,56.240002,51.422623,911700
2013-03-25,56.389999,57.470001,55.630001,57.349998,52.437553,741800
2013-04-01,57.419998,57.419998,55.750000,56.090000,51.285488,947900
2013-04-08,56.250000,57.689999,55.889999,56.900002,52.026096,708500
2013-04-15,56.619999,56.680000,54.400002,55.080002,50.361988,894900
2013-04-22,55.279999,56.840000,54.750000,55.389999,50.645443,871200
2013-04-29,55.740002,56.470001,55.020000,55.990002,51.422955,1648700
2013-05-06,56.049999,56.990002,55.759998,56.490002,51.882168,1285400
2013-05-13,56.549999,57.160000,55.740002,57.070000,52.414864,961400
2013-05-20,56.930000,57.520000,55.869999,56.220001,51.634193,643100
2013-05-27,56.730000,57.349998,56.029999,56.720001,52.093414,783000
2013-06-03,56.709999,57.310001,55.669998,57.000000,52.350574,826200
2013-06-10,57.189999,57.759998,55.669998,57.040001,52.387314,573300
2013-06-17,57.320000,57.580002,54.590000,55.029999,50.541267,960800
2013-06-24,54.470001,55.730000,54.130001,55.209999,50.706585,1122800
2013-07-01,55.490002,56.630001,55.360001,56.619999,52.001575,436400
2013-07-08,56.790001,59.660000,56.599998,59.650002,54.784416,744000
2013-07-15,59.599998,59.930000,59.130001,59.580002,54.720119,804400
2013-07-22,59.709999,60.110001,57.549999,57.939999,53.213898,872300
2013-07-29,57.689999,60.740002,57.689999,60.480000,55.546707,1801700
2013-08-05,60.430000,60.610001,58.959999,60.119999,55.455345,677800
2013-08-12,59.880001,60.580002,59.029999,59.290001,54.689758,476800
2013-08-19,59.240002,60.040001,58.770000,59.840000,55.197086,551100
2013-08-26,59.900002,60.419998,58.430000,58.810001,54.246990,695200
2013-09-02,59.439999,59.779999,57.400002,58.509998,53.970264,785200
2013-09-09,58.700001,59.939999,58.299999,59.009998,54.431477,828200
2013-09-16,59.709999,60.570000,59.169998,60.240002,55.566048,1088100
2013-09-23,60.189999,60.750000,59.630001,59.650002,55.021816,938900
2013-09-30,59.250000,61.660000,59.150002,60.130001,55.464581,1430500
2013-10-07,59.770000,61.509998,59.189999,61.450001,56.682163,1142500
2013-10-14,61.080002,63.290001,60.790001,63.189999,58.287167,644300
2013-10-21,63.180000,64.360001,63.009998,64.279999,59.292591,576500
2013-10-28,64.120003,64.699997,62.209999,63.889999,58.932846,1093400
2013-11-04,63.939999,64.769997,63.070000,64.250000,59.264915,835800
2013-11-11,64.190002,65.230003,63.939999,64.940002,60.136688,728100
2013-11-18,65.089996,65.099998,63.750000,64.199997,59.451424,1686500
2013-11-25,64.419998,65.250000,63.720001,64.919998,60.118156,1297700
2013-12-02,64.959999,65.730003,63.099998,64.690002,59.905182,889400
2013-12-09,64.570000,64.699997,63.139999,63.700001,58.988411,887700
2013-12-16,64.089996,65.459999,63.820000,65.360001,60.525623,1108700
2013-12-23,65.699997,67.099998,65.239998,66.720001,61.785046,501000
2013-12-30,66.760002,68.010002,66.489998,66.849998,61.905415,836900
2014-01-06,67.129997,68.680000,66.250000,68.050003,63.016659,2081300
2014-01-13,68.190002,68.779999,67.000000,67.239998,62.266586,3814000
2014-01-20,67.570000,67.730003,64.440002,64.480003,59.710720,1409400
2014-01-27,64.160004,64.620003,62.840000,63.799999,59.081005,1681400
2014-02-03,63.860001,64.000000,61.180000,63.490002,59.022781,1806700
2014-02-10,63.200001,64.940002,62.869999,64.769997,60.212711,898800
2014-02-17,64.860001,65.480003,64.260002,64.639999,60.091866,823100
2014-02-24,64.699997,66.739998,64.250000,66.169998,61.514225,1018700
2014-03-03,65.529999,66.370003,65.099998,65.730003,61.105179,952900
2014-03-10,65.709999,65.860001,63.990002,64.510002,59.971024,832400
2014-03-17,64.720001,65.760002,64.470001,64.750000,60.194130,905700
2014-03-24,64.540001,65.220001,63.110001,64.269997,59.747902,702300
2014-03-31,64.699997,67.510002,64.459999,66.040001,61.393360,1159200
2014-04-07,65.870003,67.349998,64.540001,64.720001,60.166241,909600
2014-04-14,65.129997,66.889999,64.589996,66.570000,61.886070,993300
2014-04-21,66.519997,67.779999,66.230003,67.139999,62.415958,940900
2014-04-28,66.910004,67.720001,66.320000,66.680000,61.988327,1211400
2014-05-05,66.139999,67.260002,65.639999,66.589996,62.163918,1018600
2014-05-12,66.959999,67.839996,65.529999,66.139999,61.743820,831000
2014-05-19,66.150002,67.180000,65.339996,65.989998,61.603786,765400
2014-05-26,66.139999,66.660004,65.440002,66.589996,62.163918,703700
2014-06-02,66.720001,67.300003,65.800003,67.110001,62.649349,714100
2014-06-09,67.029999,67.580002,64.949997,66.410004,61.995872,689500
2014-06-16,66.309998,67.099998,65.410004,66.629997,62.201252,933200
2014-06-23,66.809998,67.010002,65.790001,67.010002,62.556000,1051800
2014-06-30,66.889999,68.000000,66.550003,66.970001,62.518665,673300
2014-07-07,66.750000,66.919998,65.459999,66.349998,61.939877,838100
2014-07-14,66.750000,67.070000,64.660004,66.050003,61.659805,1278900
2014-07-21,65.680000,65.680000,63.240002,63.500000,59.279285,1677800
2014-07-28,63.110001,63.240002,60.570000,61.130001,57.066826,1696600
2014-08-04,61.299999,62.419998,60.520000,62.360001,58.472908,1324600
2014-08-11,62.680000,63.700001,61.770000,63.299999,59.354309,1023800
2014-08-18,63.599998,64.389999,63.340000,63.619999,59.654358,979600
2014-08-25,64.010002,64.230003,63.380001,64.150002,60.151321,615800
2014-09-01,64.379997,65.199997,63.919998,65.199997,61.135883,811300
2014-09-08,65.010002,65.370003,62.480000,62.700001,58.791706,977800
2014-09-15,62.880001,63.040001,61.139999,61.160000,57.347702,1683200
2014-09-22,61.099998,61.500000,60.570000,61.380001,57.553989,1567500
2014-09-29,60.860001,61.840000,58.910000,60.110001,56.363152,1657500
2014-10-06,60.250000,60.650002,57.439999,57.500000,53.915840,1610700
2014-10-13,57.410000,59.070000,55.590000,58.700001,55.041042,3507400
2014-10-20,58.709999,62.369999,58.459999,61.919998,58.060322,1717000
2014-10-27,61.369999,62.689999,58.360001,62.240002,58.360386,2275800
2014-11-03,61.730000,64.849998,61.340000,64.769997,60.732681,1964900
2014-11-10,64.839996,65.870003,64.599998,64.830002,61.063652,1209200
2014-11-17,64.959999,65.809998,64.360001,65.099998,61.317959,1266100
2014-11-24,65.209999,65.599998,64.910004,65.250000,61.459251,576900
2014-12-01,64.820000,66.900002,64.529999,66.260002,62.410564,1120400
2014-12-08,66.190002,66.580002,64.589996,64.639999,60.884682,861100
2014-12-15,64.860001,67.269997,63.400002,67.129997,63.230022,1506500
2014-12-22,67.410004,68.169998,66.830002,67.860001,63.917614,624700
2014-12-29,67.589996,68.669998,65.910004,66.650002,62.777905,678700
2015-01-05,66.199997,66.699997,63.480000,65.470001,61.666458,1673100
2015-01-12,65.489998,66.529999,63.369999,64.470001,60.724564,1169100
2015-01-19,64.300003,65.070000,63.650002,63.759998,60.055817,1009900
2015-01-26,63.580002,64.010002,61.389999,63.110001,59.443577,1801300
2015-02-02,63.230000,66.599998,62.709999,64.330002,60.859974,2585700
2015-02-09,64.040001,64.739998,63.180000,64.559998,61.077553,2187500
2015-02-16,64.129997,66.269997,64.129997,66.169998,62.600716,1121100
2015-02-23,65.919998,66.400002,65.449997,65.870003,62.316902,1155100
2015-03-02,65.870003,66.559998,63.919998,64.269997,60.803204,1193700
2015-03-09,64.129997,64.699997,62.709999,63.099998,59.696304,1614600
2015-03-16,63.430000,64.540001,62.570000,63.230000,59.819290,1894100
2015-03-23,63.349998,63.910000,62.709999,63.180000,59.772003,1571300
2015-03-30,63.410000,63.980000,62.820000,63.150002,59.743614,1363000
2015-04-06,62.919998,63.570000,62.759998,63.490002,60.065277,1242400
2015-04-13,63.049999,63.730000,61.980000,62.840000,59.450333,1602800
2015-04-20,63.070000,63.470001,62.439999,63.290001,59.876057,1277700
2015-04-27,63.380001,64.930000,62.000000,64.050003,60.595070,2775500
2015-05-04,64.339996,64.980003,62.610001,63.160000,60.018597,3444100
2015-05-11,62.970001,65.419998,62.380001,65.199997,61.957146,2464800
2015-05-18,65.120003,66.309998,64.330002,64.500000,61.291946,1443900
2015-05-25,64.480003,64.849998,63.650002,63.770000,60.598259,1046900
2015-06-01,64.019997,64.629997,63.310001,64.279999,61.082886,1776300
2015-06-08,64.239998,64.820000,63.560001,64.580002,61.367973,1330800
2015-06-15,64.059998,65.830002,63.619999,65.290001,62.042664,1887800
2015-06-22,65.639999,65.639999,64.029999,64.480003,61.272945,1432700
2015-06-29,64.150002,64.559998,63.560001,63.790001,60.617260,1373300
2015-07-06,63.450001,64.449997,63.169998,63.680000,60.512733,1377300
2015-07-13,63.779999,64.550003,63.630001,63.930000,60.750305,1192500
2015-07-20,63.820000,64.089996,61.500000,61.750000,58.678730,1138000
2015-07-27,61.220001,68.709999,60.730000,67.790001,64.418320,3161800
2015-08-03,67.779999,69.339996,66.540001,68.790001,65.666344,1422900
2015-08-10,69.010002,70.099998,67.930000,69.870003,66.697311,1197200
2015-08-17,69.620003,70.339996,67.040001,67.610001,64.539932,1195900
2015-08-24,64.800003,68.089996,64.660004,67.709999,64.635384,1594200
2015-08-31,67.389999,67.790001,65.500000,67.269997,64.215363,1251700
2015-09-07,67.750000,68.620003,66.080002,67.400002,64.339462,1435300
2015-09-14,67.279999,69.379997,66.709999,67.150002,64.100830,1535200
2015-09-21,67.480003,68.339996,64.839996,65.529999,62.554367,1411800
2015-09-28,65.139999,68.000000,63.619999,67.980003,64.893127,1761200
2015-10-05,68.430000,70.699997,67.610001,70.260002,67.069588,1237100
2015-10-12,70.309998,70.879997,68.949997,69.839996,66.668648,1072800
2015-10-19,69.610001,72.169998,69.540001,71.400002,68.157822,1123400
2015-10-26,71.300003,75.250000,69.629997,73.559998,70.219742,2181700
2015-11-02,74.769997,75.959999,72.680000,73.260002,69.933365,1661900
2015-11-09,73.050003,73.620003,70.570000,71.519997,68.551926,1553900
2015-11-16,71.870003,74.550003,71.150002,74.290001,71.207008,846500
2015-11-23,74.239998,75.559998,73.139999,75.010002,71.897133,795600
2015-11-30,75.169998,75.489998,72.919998,74.349998,71.264511,833100
2015-12-07,74.029999,74.599998,72.239998,72.860001,69.836327,1048100
2015-12-14,72.769997,73.949997,71.089996,71.110001,68.158966,1593600
2015-12-21,71.480003,73.639999,71.209999,73.300003,70.258080,641700
2015-12-28,72.980003,74.470001,72.620003,72.650002,69.635056,476900
2016-01-04,72.000000,72.209999,69.599998,69.879997,66.980011,1888200
2016-01-11,69.930000,70.919998,67.000000,68.070000,65.245125,1761900
2016-01-18,68.849998,68.849998,66.330002,68.250000,65.417671,1049800
2016-01-25,67.669998,72.910004,66.639999,72.900002,69.874664,2620500
2016-02-01,72.290001,74.660004,70.480003,71.120003,68.469528,1690100
2016-02-08,70.559998,75.650002,69.879997,75.300003,72.493736,2298800
2016-02-15,76.050003,76.190002,71.559998,72.879997,70.163925,1721900
2016-02-22,73.470001,74.949997,72.050003,73.330002,70.597145,1239000
2016-02-29,73.500000,76.099998,72.980003,76.000000,73.167641,1253300
2016-03-07,75.870003,76.809998,75.089996,75.779999,72.955849,1271600
2016-03-14,75.779999,77.760002,74.040001,76.889999,74.024483,1755300
2016-03-21,76.989998,78.889999,76.639999,77.389999,74.505844,914300
2016-03-28,77.680000,79.160004,77.379997,79.089996,76.142487,1805700
2016-04-04,79.230003,79.669998,76.660004,77.360001,74.476974,1043700
2016-04-11,77.970001,79.300003,76.870003,79.250000,76.296532,1003900
2016-04-18,79.000000,80.320000,78.430000,79.680000,76.710510,1171500
2016-04-25,78.940002,80.360001,75.709999,76.000000,73.167641,2157700
2016-05-02,75.779999,77.330002,75.010002,76.279999,73.714760,2418700
2016-05-09,76.169998,77.980003,75.660004,76.970001,74.381554,1236900
2016-05-16,77.080002,77.790001,74.160004,75.330002,72.796700,1508500
2016-05-23,75.489998,77.190002,74.730003,77.139999,74.545837,1024100
2016-05-30,77.220001,77.790001,76.070000,77.199997,74.603813,830000
2016-06-06,77.309998,78.550003,76.790001,78.199997,75.570183,881000
2016-06-13,77.750000,78.080002,75.660004,76.349998,73.782402,1357900
2016-06-20,77.180000,80.139999,76.540001,76.750000,74.168938,1347100
2016-06-27,75.930000,79.730003,74.269997,79.169998,76.507568,1307300
2016-07-04,78.849998,79.849998,77.800003,79.790001,77.106712,687000
2016-07-11,80.080002,81.169998,79.860001,79.919998,77.232346,774900
2016-07-18,79.919998,80.790001,79.220001,80.459999,77.754181,645100
2016-07-25,80.040001,81.500000,77.110001,78.180000,75.550858,1711100
2016-08-01,78.139999,78.139999,75.940002,76.589996,74.291321,1312200
2016-08-08,76.709999,77.589996,75.349998,75.580002,73.311638,755200
2016-08-15,75.870003,76.989998,75.010002,76.779999,74.475624,898700
2016-08-22,76.769997,79.070000,76.400002,78.470001,76.114914,1238600
2016-08-29,78.500000,79.180000,77.489998,79.160004,76.784210,1104800
2016-09-05,79.440002,80.550003,77.430000,77.459999,75.135231,1161700
2016-09-12,77.000000,78.559998,77.000000,77.599998,75.271019,1051700
2016-09-19,77.900002,79.510002,77.839996,78.790001,76.425301,1365700
2016-09-26,78.690002,78.970001,76.970001,77.410004,75.086723,1715200
2016-10-03,77.070000,77.680000,75.190002,75.639999,73.369835,1166500
2016-10-10,76.040001,76.519997,74.550003,76.029999,73.748138,798000
2016-10-17,76.019997,77.410004,75.389999,77.160004,74.844223,695300
2016-10-24,78.099998,78.099998,72.580002,73.019997,70.828468,1155200
2016-10-31,72.930000,73.889999,70.320000,71.410004,69.266800,1711100
2016-11-07,72.570000,76.070000,70.750000,71.849998,70.000359,2231200
2016-11-14,72.290001,74.260002,72.290001,73.650002,71.754021,1140400
2016-11-21,73.699997,76.660004,73.339996,76.070000,74.111725,952300
2016-11-28,76.099998,77.279999,72.459999,74.349998,72.435989,1852600
2016-12-05,74.839996,75.180000,71.839996,74.750000,72.825699,2084500
2016-12-12,74.849998,75.599998,72.730003,72.930000,71.052559,1798500
2016-12-19,73.190002,74.160004,72.580002,73.610001,71.715050,1283800
2016-12-26,73.809998,74.690002,73.250000,73.449997,71.559166,772400
2017-01-02,74.260002,74.720001,72.349998,73.500000,71.607880,1394300
2017-01-09,73.500000,74.410004,72.360001,73.500000,71.607880,1101900
2017-01-16,72.879997,73.830002,71.550003,71.639999,69.795753,1253200
2017-01-23,71.879997,73.940002,71.440002,73.440002,71.549408,1513500
2017-01-30,73.070000,74.129997,72.099998,73.779999,71.880669,2062200
2017-02-06,73.529999,76.199997,72.440002,74.790001,73.183548,2610700
2017-02-13,75.220001,75.440002,72.860001,73.900002,72.312675,1980400
2017-02-20,73.910004,74.809998,73.639999,74.360001,72.762794,876100
2017-02-27,74.099998,76.239998,73.949997,76.040001,74.406700,1639100
2017-03-06,75.470001,77.000000,75.180000,76.790001,75.140587,1967000
2017-03-13,76.800003,77.690002,75.349998,77.080002,75.424370,1304700
2017-03-20,77.169998,77.870003,76.320000,76.620003,74.974251,989400
2017-03-27,75.809998,77.379997,75.809998,76.989998,75.336296,962200
2017-04-03,76.940002,77.459999,75.489998,76.160004,74.524124,1624900
2017-04-10,75.940002,76.970001,75.760002,75.800003,74.171867,907400
2017-04-17,76.029999,78.639999,75.879997,77.989998,76.314819,1221600
2017-04-24,78.970001,80.529999,77.620003,80.300003,78.575195,1759500
2017-05-01,80.080002,82.169998,78.889999,81.910004,80.150627,2711400
2017-05-08,82.080002,83.040001,81.720001,82.430000,80.982162,1523900
2017-05-15,82.430000,82.980003,81.120003,82.360001,80.913406,1346300
2017-05-22,82.250000,84.629997,82.050003,84.370003,82.888100,991500
2017-05-29,84.129997,86.730003,83.800003,86.330002,84.813675,953100
2017-06-05,86.099998,87.089996,84.860001,85.650002,84.145607,1321600
2017-06-12,85.239998,86.769997,84.870003,85.949997,84.440338,1280000
2017-06-19,86.320000,87.940002,85.930000,86.800003,85.275414,1233100
2017-06-26,86.970001,87.589996,85.779999,86.860001,85.334358,1099100
2017-07-03,87.209999,88.550003,86.440002,88.089996,86.542755,1001800
2017-07-10,87.949997,89.970001,87.480003,89.430000,87.859207,1153600
2017-07-17,89.500000,90.790001,89.000000,89.510002,87.937813,1567700
2017-07-24,88.940002,89.959999,80.830002,82.309998,80.864273,2548800
2017-07-31,82.239998,83.500000,80.690002,82.360001,81.203712,2264900
2017-08-07,82.550003,82.949997,81.410004,82.139999,80.986794,1003000
2017-08-14,82.629997,83.830002,81.639999,82.150002,80.996658,999700
2017-08-21,82.059998,82.730003,80.949997,82.389999,81.233284,1007000
2017-08-28,82.650002,84.000000,81.489998,83.879997,82.702362,1125200
2017-09-04,83.720001,84.180000,82.320000,83.820000,82.643204,881400
2017-09-11,84.320000,85.440002,84.000000,84.709999,83.520706,1219400
2017-09-18,84.970001,86.760002,84.739998,85.720001,84.516533,1015100
2017-09-25,85.750000,87.510002,85.349998,86.309998,85.098244,1144300
2017-10-02,86.809998,88.849998,86.540001,88.580002,87.336388,1039400
2017-10-09,88.680000,89.370003,88.190002,88.839996,87.592720,843700
2017-10-16,88.919998,89.370003,87.970001,89.199997,87.947670,905000
2017-10-23,89.160004,89.680000,85.889999,87.930000,86.695503,1576000
2017-10-30,87.459999,88.120003,86.120003,86.940002,85.719406,1489600
2017-11-06,87.019997,87.080002,84.220001,84.910004,84.028908,1212300
2017-11-13,84.620003,86.500000,84.620003,85.650002,84.761230,931400
2017-11-20,85.610001,86.820000,85.099998,86.250000,85.355003,975400
2017-11-27,86.370003,88.989998,86.370003,87.599998,86.690994,1195700
2017-12-04,87.790001,89.160004,87.320000,87.900002,86.987877,1307800
2017-12-11,87.870003,87.870003,85.699997,86.980003,86.077431,1863400
2017-12-18,87.250000,87.889999,85.430000,85.900002,85.008636,1236400
2017-12-25,85.790001,87.000000,85.059998,86.279999,85.384689,600900
2018-01-01,86.440002,87.930000,85.800003,86.910004,86.008156,983100
2018-01-08,86.860001,87.760002,85.160004,86.559998,85.661789,1275600
2018-01-15,86.360001,88.699997,86.010002,88.610001,87.690514,902700
2018-01-22,88.610001,89.500000,86.349998,89.139999,88.215019,1329100
2018-01-29,88.730003,89.230003,85.540001,85.800003,84.909676,1556200
2018-02-05,85.099998,86.000000,79.970001,82.160004,81.605103,1806900
2018-02-12,82.559998,92.320000,81.589996,91.830002,91.209793,2585900
2018-02-19,91.239998,92.279999,89.930000,90.989998,90.375458,1159900
2018-02-26,91.279999,91.480003,88.300003,89.680000,89.074310,1356200
2018-03-05,89.309998,91.139999,89.279999,90.870003,90.256279,1495600
2018-03-12,90.699997,92.099998,89.430000,90.150002,89.541138,1369900
2018-03-19,90.059998,90.489998,86.690002,86.769997,86.183968,1145800
2018-03-26,87.660004,90.339996,87.070000,89.830002,89.223305,1013400
2018-04-02,89.370003,90.849998,86.849998,88.500000,87.902283,1436100
2018-04-09,89.150002,93.330002,88.599998,92.750000,92.123581,1662000
2018-04-16,93.029999,96.389999,92.959999,94.440002,93.802170,1433700
2018-04-23,94.709999,95.430000,91.879997,93.459999,92.828781,1714600
2018-04-30,93.730003,94.000000,90.839996,92.260002,91.636887,2866800
2018-05-07,92.370003,94.320000,91.370003,94.290001,93.653183,1626000
2018-05-14,94.190002,94.709999,91.589996,93.559998,93.249657,1656400
2018-05-21,94.019997,94.949997,93.360001,94.080002,93.767937,762400
2018-05-28,93.459999,94.410004,92.190002,92.769997,92.462273,790700
2018-06-04,93.110001,94.500000,92.040001,93.660004,93.349327,1548800
2018-06-11,93.790001,95.370003,93.430000,94.919998,94.605141,1991500
2018-06-18,94.570000,95.080002,92.339996,92.629997,92.322739,1944600
2018-06-25,92.769997,94.120003,91.419998,93.379997,93.070251,1498300
2018-07-02,92.910004,95.029999,92.459999,94.080002,93.767937,903400
2018-07-09,94.449997,96.830002,94.449997,94.870003,94.555313,1027600
2018-07-16,94.769997,96.540001,93.160004,95.779999,95.462288,843300
2018-07-23,95.940002,103.029999,94.050003,102.900002,102.558678,1399700
2018-07-30,103.519997,104.500000,99.940002,104.099998,103.754692,2048900
2018-08-06,104.010002,104.949997,102.160004,102.379997,102.379997,1445000
2018-08-13,102.239998,103.470001,100.940002,101.400002,101.400002,227800
